timestamp,emg1,emg2,emg3,emg4,emg5,emg6,emg7,emg8,moving,characteristic_num
1624715048.184659,-6,-12,-4,47,2,-8,3,-2,,0
1624715048.184659,15,24,-6,-68,-3,4,85,50,,0
1624715048.186461,-3,-1,11,10,-5,-4,-23,6,,1
1624715048.186461,-3,1,14,24,4,7,-20,-23,,1
1624715048.187587,-6,-8,-20,18,9,-9,2,5,,2
1624715048.187587,6,6,23,-3,-7,-2,63,37,,2
1624715048.189952,3,-2,-33,-15,-6,6,-11,-10,,3
1624715048.189952,2,-5,-3,0,3,1,28,-31,,3
1624715048.190838,-11,-3,-6,-9,-3,-3,-5,56,,0
1624715048.190838,-6,4,11,-24,4,4,106,23,,0
1624715048.205052,-2,-3,-9,-56,-19,-3,-128,-2,,1
1624715048.205052,-25,-14,-4,6,-3,-7,-19,-27,,1
1624715048.209773,20,7,-20,5,8,2,-128,2,,2
1624715048.209773,9,5,-29,-10,-5,5,119,50,,2
1624715048.21992,-8,-6,-39,-52,-7,-3,-128,-41,,3
1624715048.21992,-5,-2,-22,59,8,4,16,-21,,3
1624715048.232633,-11,-10,-45,-108,-4,2,-128,-12,,0
1624715048.232633,10,8,2,14,-2,4,109,46,,0
1624715048.242131,-8,-4,-19,1,-7,-5,-128,-37,,1
1624715048.242131,-4,-3,-12,23,0,2,9,-22,,1
1624715048.247383,-6,-10,-18,10,6,4,-128,-15,,2
1624715048.247383,28,7,-6,2,4,-5,98,29,,2
1624715048.265098,-38,-8,-14,-34,-15,-4,-128,-31,,3
1624715048.265098,2,1,1,23,4,-1,-18,-10,,3
1624715048.270168,-2,-10,-11,3,-4,-4,-128,-30,,0
1624715048.270168,0,6,9,-29,-5,1,84,30,,0
1624715048.284776,-6,0,-9,4,5,0,-128,-47,,1
1624715048.284776,2,3,8,42,1,2,-4,-13,,1
1624715048.2923388,-7,-11,-18,5,-3,-11,-128,-22,,2
1624715048.2923388,4,2,-16,-24,-6,5,84,53,,2
1624715048.3023949,-5,-3,-29,-50,-10,-8,-128,-48,,3
1624715048.3023949,2,-7,33,26,9,2,-17,-10,,3
1624715048.315064,-15,-5,13,16,9,5,-128,-46,,0
1624715048.315064,2,4,-65,6,-14,2,94,43,,0
1624715048.324425,-8,-10,-16,-32,-8,-6,-128,-39,,1
1624715048.324425,10,1,-20,2,0,0,-36,-22,,1
1624715048.330088,-17,-5,6,10,9,-1,-80,-26,,2
1624715048.330088,8,-9,-7,-25,-7,2,93,47,,2
1624715048.345031,22,6,25,13,-4,-9,-128,-43,,3
1624715048.345031,-1,1,-2,40,11,8,123,1,,3
1624715048.352601,-6,-6,-10,-3,4,-7,-74,-20,,0
1624715048.352601,12,13,24,-18,-6,2,127,56,,0
1624715048.362219,-11,-11,-19,31,1,-1,-108,-36,,1
1624715048.362219,-3,-3,-21,-38,-2,1,127,11,,1
1624715048.374702,-3,-2,-16,-2,4,0,-23,-15,,2
1624715048.374702,8,6,-1,-19,-12,-8,127,65,,2
1624715048.38474,-2,1,6,-8,2,3,-51,-30,,3
1624715048.38474,2,3,7,10,1,5,127,17,,3
1624715048.390156,0,3,15,0,1,1,8,13,,0
1624715048.390156,3,5,-1,-8,2,-1,23,31,,0
1624715048.405164,-10,-9,-8,-4,-5,-7,-26,-16,,1
1624715048.405164,-2,-4,-6,36,0,-4,-54,-17,,1
1624715048.412663,-37,-9,5,36,-1,-4,32,6,,2
1624715048.412663,10,9,10,-22,-8,4,28,38,,2
1624715048.422112,0,-4,1,-14,0,4,2,-8,,3
1624715048.422112,-1,6,-15,9,2,-7,-56,-25,,3
1624715048.435801,-3,-2,10,5,5,-6,15,9,,0
1624715048.435801,0,6,-1,-36,-9,0,38,31,,0
1624715048.442662,0,4,18,-3,-3,1,-1,-5,,1
1624715048.442662,-17,-10,-27,3,2,2,-35,-30,,1
1624715048.450179,2,-5,26,39,4,9,39,14,,2
1624715048.450179,12,8,15,-67,-13,-14,-12,35,,2
1624715048.4651,-2,7,0,-35,-1,6,-12,-16,,3
1624715048.4651,-3,-10,-41,17,0,0,-42,-27,,3
1624715048.472176,2,10,6,31,-1,0,51,23,,0
1624715048.472176,2,-2,10,-19,-8,4,19,35,,0
1624715048.4822478,-2,5,18,5,-1,-2,-11,-12,,1
1624715048.4822478,-16,-10,9,21,11,1,-56,-25,,1
1624715048.4958458,0,-2,0,57,6,3,25,9,,2
1624715048.4958458,12,0,-10,-46,-15,-1,21,41,,2
1624715048.502508,-24,-2,1,22,2,1,-25,-15,,3
1624715048.502508,-3,-2,-12,-49,3,1,-30,-19,,3
1624715048.509575,-3,-7,-29,76,-1,-13,19,-1,,0
1624715048.509575,9,2,34,-17,-10,9,21,36,,0
1624715048.525148,-2,-3,0,12,-2,-1,1,-9,,1
1624715048.525148,-6,-8,-39,-25,0,-7,-66,-41,,1
1624715048.533185,2,-4,-14,-6,0,1,60,30,,2
1624715048.533185,7,14,-3,-74,-11,4,-4,29,,2
1624715048.542926,-5,2,15,31,1,-1,-6,-12,,3
1624715048.542926,-4,-6,-5,6,-2,-11,-71,-29,,3
1624715048.5559108,1,-1,-4,1,1,-1,33,7,,0
1624715048.5559108,0,-4,-12,33,-9,3,-9,17,,0
1624715048.56198,6,-5,3,-69,-6,-1,5,3,,1
1624715048.56198,-36,-8,4,-15,3,-6,-81,-37,,1
1624715048.569568,15,1,-16,32,-1,3,60,15,,2
1624715048.569568,3,8,35,-3,-10,-9,-37,16,,2
1624715048.584693,-7,3,9,20,-2,3,-18,-13,,3
1624715048.584693,-3,-5,-13,31,7,5,-52,-22,,3
1624715048.593478,3,2,9,52,6,4,52,17,,0
1624715048.593478,8,5,15,0,-14,-8,-56,11,,0
1624715048.60076,-16,1,6,-15,-6,1,-15,-8,,1
1624715048.60076,2,-8,-35,67,-3,-7,-80,-41,,1
1624715048.6156218,5,-1,-7,-65,-3,0,49,26,,2
1624715048.6156218,5,3,9,21,-7,-1,-69,6,,2
1624715048.6226869,-2,-4,-9,10,0,2,-7,-8,,3
1624715048.6226869,-4,-3,-4,11,3,0,-59,-35,,3
1624715048.6301172,1,-4,-3,11,-2,-5,-9,13,,0
1624715048.6301172,21,6,7,-40,-12,-3,-42,13,,0
1624715048.6445959,-11,-3,-7,-12,-8,-5,-6,-10,,1
1624715048.6445959,-5,-13,-40,31,15,3,-84,-31,,1
1624715048.6522791,-4,0,36,39,-1,-1,55,16,,2
1624715048.6522791,1,4,7,-4,-9,-2,-34,10,,2
1624715048.6622112,-5,-4,24,34,-1,-7,-13,-16,,3
1624715048.6622112,-8,-17,-64,-35,0,3,-55,-27,,3
1624715048.675384,-3,-1,-7,-39,-2,1,40,18,,0
1624715048.675384,3,-2,8,102,-9,-12,-58,2,,0
1624715048.682035,-1,-1,-32,-128,-8,-4,-7,-5,,1
1624715048.682035,8,-2,-17,127,18,8,-36,-22,,1
1624715048.690214,-20,-3,46,-46,-3,-4,32,5,,2
1624715048.690214,13,3,-6,-15,-13,0,-17,14,,2
1624715048.7056582,-3,1,-9,-13,2,-1,-15,-12,,3
1624715048.7056582,-4,-12,-36,7,8,3,-39,-34,,3
1624715048.712492,23,3,-17,-21,3,3,-8,5,,0
1624715048.712492,-1,6,11,60,-2,5,-7,3,,0
1624715048.7224178,-3,7,-38,-69,-7,-4,-33,-4,,1
1624715048.7224178,-6,-6,-2,31,7,1,-44,-37,,1
1624715048.7352629,-6,-4,-24,-7,-1,-11,-2,9,,2
1624715048.7352629,1,1,31,27,-5,2,-55,-4,,2
1624715048.757271,-5,5,-1,-62,-5,-5,-22,-16,,3
1624715048.757271,-4,-9,9,58,9,0,-17,-19,,3
1624715048.767254,-1,0,-23,2,1,3,20,21,,0
1624715048.767254,3,4,31,-64,-9,-2,-7,10,,0
1624715048.781184,0,1,32,4,2,3,0,-5,,1
1624715048.781184,-4,-8,-15,11,9,-10,-43,-37,,1
1624715048.7835982,31,2,-10,35,-3,5,29,22,,2
1624715048.7835982,-69,-10,12,-7,-10,-6,-3,12,,2
1624715048.8039622,5,-3,-20,-3,2,8,30,-12,,3
1624715048.8039622,0,-6,-9,15,8,-9,-16,-27,,3
1624715048.8067,2,4,-6,1,1,2,42,18,,0
1624715048.8067,1,1,-4,-62,-11,-8,9,7,,0
1624715048.817291,-1,-2,0,9,-4,1,13,-6,,1
1624715048.817291,-4,-5,-5,59,11,-1,-41,-41,,1
1624715048.8275871,0,-1,26,2,2,5,38,21,,2
1624715048.8275871,-1,0,7,-25,-11,0,-24,3,,2
1624715048.841186,-2,-3,-7,3,-3,3,-17,-9,,3
1624715048.841186,-5,-7,3,23,15,-3,-3,-28,,3
1624715048.844486,2,-1,-4,12,4,3,33,14,,0
1624715048.844486,-1,-10,-12,8,-8,-6,-26,6,,0
1624715048.863637,-1,-1,-17,-1,2,4,16,7,,1
1624715048.863637,-29,-7,16,5,-1,-10,-27,-41,,1
1624715048.867219,16,11,-2,3,6,-1,19,13,,2
1624715048.867219,11,5,-2,-24,2,1,-18,3,,2
1624715048.877138,-17,-3,4,16,-3,-8,-17,-4,,3
1624715048.877138,-6,-6,-11,4,2,2,-14,-36,,3
1624715048.88705,-3,-6,-21,-24,-3,-8,33,14,,0
1624715048.88705,3,1,-21,-63,-2,3,-12,1,,0
1624715048.9012322,2,-4,6,54,-5,5,-1,1,,1
1624715048.9012322,-3,-4,-1,7,8,1,7,-26,,1
1624715048.904448,-2,-2,-3,-85,-7,-13,-5,10,,2
1624715048.904448,6,8,9,26,0,-1,-32,-7,,2
1624715048.924896,-3,-1,-6,20,-1,2,-6,-2,,3
1624715048.924896,-5,-4,-14,-7,11,9,26,-10,,3
1624715048.927434,-1,-7,-1,2,0,-3,-4,13,,0
1624715048.927434,-2,2,-23,-4,-8,-3,-12,-3,,0
1624715048.9372501,-4,-4,-15,-24,-2,-5,-25,-7,,1
1624715048.9372501,20,-6,-22,31,9,5,4,-17,,1
1624715048.947376,5,-5,23,11,5,5,36,16,,2
1624715048.947376,-14,-2,-7,-19,-13,-4,-32,-12,,2
1624715048.9615848,-3,-3,-8,-5,1,-7,-57,-13,,3
1624715048.9615848,-4,-3,18,5,2,-2,37,-21,,3
1624715048.964609,1,2,-2,8,-1,-6,-16,11,,0
1624715048.964609,2,0,-5,-5,-6,4,7,4,,0
1624715048.984044,-4,-6,8,0,-5,-7,-47,-24,,1
1624715048.984044,0,-6,-21,-3,5,6,10,-15,,1
1624715048.987266,0,3,-5,18,-1,4,1,13,,2
1624715048.987266,-2,10,-7,-14,-7,1,-1,-7,,2
1624715048.997258,0,-1,15,0,-3,-2,-36,-9,,3
1624715048.997258,-6,-9,-10,-33,3,-10,-20,-17,,3
1624715049.007293,1,6,12,12,1,8,2,23,,0
1624715049.007293,-1,4,-6,9,-10,-5,-9,-6,,0
1624715049.022379,0,-8,-6,-16,-8,0,-43,-15,,1
1624715049.022379,-5,-4,-19,1,9,-5,27,-10,,1
1624715049.025545,-24,-1,6,-29,0,1,22,17,,2
1624715049.025545,9,3,-9,-8,-8,-5,-50,-13,,2
1624715049.042707,-6,-8,-5,7,-4,-3,-33,-3,,3
1624715049.042707,2,1,1,15,7,0,19,-15,,3
1624715049.044014,-5,2,-10,11,5,4,12,16,,0
1624715049.044014,6,2,-20,-27,-14,-7,-33,4,,0
1624715049.0560472,-4,0,38,-7,8,3,-20,-18,,1
1624715049.0560472,1,-2,-2,78,12,3,17,-9,,1
1624715049.0652,-1,-1,12,-4,-1,-8,-1,6,,2
1624715049.0652,1,1,-18,-39,-15,-2,-20,-2,,2
1624715049.080126,-8,-1,3,18,5,2,-31,-17,,3
1624715049.080126,-12,-10,3,4,10,0,15,-12,,3
1624715049.081791,4,3,-5,-10,-1,-14,1,12,,0
1624715049.081791,27,6,11,9,-11,0,-45,-13,,0
1624715049.102496,-12,-10,-4,-4,7,8,14,-17,,1
1624715049.102496,-3,8,-28,13,12,-1,-4,-2,,1
1624715049.1040452,2,5,46,-63,-4,1,30,6,,2
1624715049.1040452,-5,3,7,57,-4,7,-15,7,,2
1624715049.1167161,0,-2,17,3,0,-3,-12,-13,,3
1624715049.1167161,7,0,4,24,9,0,5,-12,,3
1624715049.127655,1,1,0,-61,-3,1,58,15,,0
1624715049.127655,3,-10,-13,22,-2,-3,-38,-6,,0
1624715049.141176,-1,-1,21,17,1,2,-11,-12,,1
1624715049.141176,-2,-3,-12,6,7,3,-59,-12,,1
1624715049.144449,4,-1,7,-4,-1,0,59,15,,2
1624715049.144449,3,2,-17,-5,-9,-2,-28,-10,,2
1624715049.162324,-25,-4,-7,-128,-7,1,-6,-11,,3
1624715049.162324,18,3,-2,87,17,-5,16,-3,,3
1624715049.1718452,7,5,13,19,2,2,13,19,,0
1624715049.1718452,-5,1,-5,-15,-14,-9,-44,-15,,0
1624715049.184572,-9,-5,39,13,-1,4,-5,-38,,1
1624715049.184572,2,-10,-58,1,2,3,14,4,,1
1624715049.194287,-11,-3,-12,13,5,2,26,18,,2
1624715049.194287,5,3,33,-10,-9,0,-41,-3,,2
1624715049.2165499,4,7,10,13,5,-2,1,-11,,3
1624715049.2165499,3,4,37,-14,5,-1,-15,-21,,3
1624715049.219158,6,1,-11,5,5,5,35,31,,0
1624715049.219158,4,-1,-25,6,-4,2,-29,-4,,0
1624715049.24025,-2,3,-7,10,-3,-4,-8,-8,,1
1624715049.24025,-11,-6,30,65,11,1,12,-7,,1
1624715049.243094,2,1,-23,-21,1,4,30,9,,2
1624715049.243094,-5,-5,-22,-33,-8,-9,-88,-20,,2
1624715049.261052,3,2,-13,15,-3,-1,-5,-1,,3
1624715049.261052,-9,-1,-18,15,7,2,-6,-18,,3
1624715049.264748,0,0,36,9,-3,0,21,19,,0
1624715049.264748,-2,-1,-12,-97,-15,-5,-32,-9,,0
1624715049.283574,-6,-10,-17,69,2,-3,-10,-14,,1
1624715049.283574,-5,-8,1,31,8,0,-15,-8,,1
1624715049.28617,3,-2,-5,-29,-7,1,27,18,,2
1624715049.28617,4,-4,-55,3,-3,-4,-38,-15,,2
1624715049.306284,-2,1,13,-50,-2,0,3,-3,,3
1624715049.306284,-4,-6,-11,-22,2,0,5,-3,,3
1624715049.309084,-3,-6,1,11,-10,-6,10,8,,0
1624715049.309084,5,12,7,6,2,2,-7,-4,,0
1624715049.327245,1,1,8,42,6,6,19,-1,,1
1624715049.327245,-14,-2,-14,10,9,2,1,-3,,1
1624715049.337752,30,8,4,-4,-2,-9,-26,10,,2
1624715049.337752,10,2,12,-24,-14,-3,-22,0,,2
1624715049.349781,-23,-3,1,-10,-1,-3,-3,-19,,3
1624715049.349781,-4,-10,-25,-9,2,-1,17,-5,,3
1624715049.359667,7,11,49,2,1,4,55,16,,0
1624715049.359667,10,-10,-23,-2,-1,3,-19,-8,,0
1624715049.381838,-12,-10,-33,-6,-3,5,16,2,,1
1624715049.381838,-2,-5,14,26,10,-1,-33,-10,,1
1624715049.386778,4,6,5,-1,2,1,53,22,,2
1624715049.386778,1,0,0,-24,-11,-4,-24,-14,,2
1624715049.403476,2,-4,-23,-40,-4,-5,-3,-13,,3
1624715049.403476,17,7,23,25,10,-2,-15,-7,,3
1624715049.406656,3,0,-5,-10,4,8,56,24,,0
1624715049.406656,-4,-3,-9,46,-11,2,-28,-5,,0
1624715049.426691,-8,-3,46,-2,-5,-2,-25,-16,,1
1624715049.426691,-10,-8,-43,29,8,4,5,-6,,1
1624715049.429578,-4,5,13,-22,-2,-6,62,23,,2
1624715049.429578,1,-2,-15,-51,-9,0,-33,-10,,2
1624715049.448639,0,1,-31,-1,-5,-2,9,2,,3
1624715049.448639,0,-8,0,27,4,-4,7,-8,,3
1624715049.452123,2,-3,9,1,2,3,54,29,,0
1624715049.452123,-2,9,13,6,-8,-7,-48,-23,,0
1624715049.470983,0,-1,18,-14,2,3,19,-1,,1
1624715049.470983,-4,-9,-60,-27,1,0,30,6,,1
1624715049.4745028,0,5,54,-6,-7,-2,70,23,,2
1624715049.4745028,4,-4,-38,-33,-12,2,-8,-6,,2
1624715049.493473,-13,-9,-49,64,10,0,-11,0,,3
1624715049.493473,-15,-6,-1,-39,7,0,2,-8,,3
1624715049.496782,13,10,49,54,3,2,78,40,,0
1624715049.496782,-7,-4,-19,3,-5,1,-2,-19,,0
1624715049.515445,-5,-10,-4,35,3,4,-26,-10,,1
1624715049.515445,-4,9,33,-76,4,-6,15,-7,,1
1624715049.522995,1,-10,-60,-10,3,-1,8,30,,2
1624715049.522995,28,8,35,7,-4,-7,-47,-9,,2
1624715049.545411,-37,-8,-16,14,-2,-6,-15,-10,,3
1624715049.545411,4,11,-11,-25,3,-2,-9,-8,,3
1624715049.551132,10,7,31,30,7,9,67,29,,0
1624715049.551132,4,1,2,-37,-2,6,-19,-6,,0
1624715049.567444,2,-1,-18,11,-3,-4,10,-4,,1
1624715049.567444,-2,-4,-3,17,6,-6,-24,-8,,1
1624715049.5709639,-1,6,20,-3,-2,8,55,29,,2
1624715049.5709639,1,2,23,-8,-4,-1,47,-5,,2
1624715049.591229,-4,-4,-20,-3,2,-3,-5,2,,3
1624715049.591229,8,-6,-29,39,13,2,1,-6,,3
1624715049.593219,-10,8,86,-20,-6,1,68,30,,0
1624715049.593219,-7,-11,-39,27,-11,-10,-22,-15,,0
1624715049.612931,0,2,-51,-43,1,0,-12,-7,,1
1624715049.612931,0,4,46,27,10,5,7,2,,1
1624715049.6142359,8,6,-3,-4,-4,1,65,35,,2
1624715049.6142359,-2,1,-14,-1,-4,-4,-41,-24,,2
1624715049.635563,1,4,-7,51,5,-3,-23,1,,3
1624715049.635563,-4,-15,-35,-59,2,1,56,5,,3
1624715049.6414442,6,6,13,-46,-12,7,69,38,,0
1624715049.6414442,-1,-2,9,5,-4,-8,-26,-23,,0
1624715049.6564429,-3,-2,-8,-54,-4,-2,-27,-11,,1
1624715049.6564429,-3,-4,11,89,6,0,-18,-12,,1
1624715049.6656902,3,-11,-37,-44,-11,3,92,46,,2
1624715049.6656902,-25,-7,-6,4,-4,-4,-29,-11,,2
1624715049.679115,5,7,-5,3,10,3,-44,-15,,3
1624715049.679115,-7,-8,11,15,4,-8,6,-10,,3
1624715049.688661,5,8,13,18,-3,5,103,54,,0
1624715049.688661,-7,-5,-3,68,9,2,-61,-19,,0
1624715049.7104268,24,3,15,-46,-1,3,-13,-1,,1
1624715049.7104268,-28,-4,11,11,0,-9,2,-9,,1
1624715049.71221,12,10,1,21,-2,5,95,39,,2
1624715049.71221,-1,-4,2,-5,-7,2,-30,-13,,2
1624715049.733642,3,1,0,11,1,-1,-32,-14,,3
1624715049.733642,-2,-5,0,40,4,0,22,4,,3
1624715049.737463,7,15,74,22,-2,-6,34,32,,0
1624715049.737463,-1,-3,-14,-20,-10,-3,-4,-11,,0
1624715049.757304,-1,-1,-6,4,3,-1,-16,-12,,1
1624715049.757304,-2,-6,-17,6,4,-1,7,-8,,1
1624715049.7599611,8,17,34,-42,-10,4,89,42,,2
1624715049.7599611,-9,-10,-1,-11,-6,0,-42,-20,,2
1624715049.779258,-3,-5,-14,23,3,-4,-44,-9,,3
1624715049.779258,4,-1,0,-51,-2,1,31,-1,,3
1624715049.782551,33,12,3,18,-3,4,43,42,,0
1624715049.782551,-5,-4,8,25,3,3,-20,-12,,0
1624715049.80136,-6,2,-18,-4,-4,-11,-60,-21,,1
1624715049.80136,-6,-9,8,15,5,-6,-3,-4,,1
1624715049.8046122,9,13,6,-42,-7,5,93,55,,2
1624715049.8046122,-10,-1,39,28,-2,-1,-17,-35,,2
1624715049.822908,-7,-8,-7,3,2,-1,-41,-24,,3
1624715049.822908,13,0,44,21,2,-2,36,6,,3
1624715049.824445,-15,9,-31,-9,-5,5,63,46,,0
1624715049.824445,2,0,2,7,0,-2,-31,-17,,0
1624715049.845004,1,-2,0,-1,2,4,-38,-17,,1
1624715049.845004,-17,-3,-18,-2,1,-5,21,3,,1
1624715049.846603,34,17,-9,-24,-7,0,91,35,,2
1624715049.846603,-4,0,5,-35,-7,-2,4,-4,,2
1624715049.868654,-6,-6,-7,62,9,2,-52,-16,,3
1624715049.868654,1,9,1,-47,0,-8,46,7,,3
1624715049.871847,2,2,8,-10,-9,3,47,39,,0
1624715049.871847,-6,-11,-26,4,5,-1,-20,-18,,0
1624715049.890292,-5,2,19,-1,-4,-9,-64,-30,,1
1624715049.890292,0,-3,-32,-7,3,4,63,9,,1
1624715049.899096,5,7,51,4,-9,-1,23,38,,2
1624715049.899096,-4,-4,-8,-19,-2,-10,-8,-16,,2
1624715049.9123268,-4,-7,-8,-28,6,-2,-47,-23,,3
1624715049.9123268,1,4,3,64,6,5,54,19,,3
1624715049.923018,15,4,-1,-23,-12,-7,44,44,,0
1624715049.923018,-3,-5,-4,-4,-3,1,-21,-14,,0
1624715049.943497,-4,-1,-1,7,4,-2,-35,-23,,1
1624715049.943497,0,-3,1,-11,3,-8,29,10,,1
1624715049.946712,-3,6,1,3,-8,0,24,31,,2
1624715049.946712,3,-6,8,-21,-2,4,12,-3,,2
1624715049.966607,11,-5,-17,6,-7,0,-60,-22,,3
1624715049.966607,-4,-4,-25,18,21,2,49,10,,3
1624715049.969831,-1,7,26,-50,-13,-5,-7,25,,0
1624715049.969831,2,2,26,78,3,5,-5,5,,0
1624715049.988526,-8,4,15,11,-1,-1,-49,-23,,1
1624715049.988526,2,10,18,51,10,1,-3,10,,1
1624715049.991325,12,3,18,-25,-11,5,85,36,,2
1624715049.991325,4,-4,4,29,4,3,-6,-1,,2
1624715050.011584,-4,0,-7,5,4,-10,-64,-28,,3
1624715050.011584,11,-4,4,13,4,3,22,19,,3
1624715050.0148191,2,6,23,2,-6,3,-13,23,,0
1624715050.0148191,2,-7,-23,-74,-7,-1,3,0,,0
1624715050.0337,-2,-1,0,15,3,-3,-36,-20,,1
1624715050.0337,20,1,-9,-2,2,-6,16,7,,1
1624715050.036692,2,3,-36,4,-4,4,28,28,,2
1624715050.036692,-9,-4,-12,-17,-5,-8,-19,-14,,2
1624715050.056122,-3,0,17,92,7,0,-29,-23,,3
1624715050.056122,-3,1,-24,-99,-3,3,27,4,,3
1624715050.059286,7,5,24,-20,-16,-6,14,32,,0
1624715050.059286,18,2,-19,-5,-1,3,17,-11,,0
1624715050.086831,-45,-25,-38,19,8,-4,1,-22,,1
1624715050.086831,1,2,16,-16,0,-4,-13,10,,1
1624715050.091112,5,-1,-25,-45,-12,0,-5,14,,2
1624715050.091112,5,-1,51,60,-1,-3,-3,-12,,2
1624715050.108055,-2,-10,-50,-75,-2,11,-22,-15,,3
1624715050.108055,-6,-12,-70,-35,-1,-9,21,11,,3
1624715050.1098912,-1,10,53,48,-6,4,6,22,,0
1624715050.1098912,-2,-1,7,-39,-2,4,-3,-5,,0
1624715050.131546,-3,-5,2,19,6,0,-40,-23,,1
1624715050.131546,22,-7,-1,1,1,-1,8,-1,,1
1624715050.134315,13,16,43,4,-6,-5,-10,23,,2
1624715050.134315,-2,-2,-38,-22,-5,3,-4,0,,2
1624715050.153984,-4,-4,-25,-16,1,1,-25,-20,,3
1624715050.153984,-1,-1,50,21,8,0,32,13,,3
1624715050.15715,0,2,10,15,-7,2,1,8,,0
1624715050.15715,26,1,1,-34,3,3,-29,-2,,0
1624715050.1759439,-40,-8,-22,-82,-3,-17,-58,-31,,1
1624715050.1759439,1,0,-7,76,4,3,27,17,,1
1624715050.1791208,11,4,30,-6,-11,0,-10,25,,2
1624715050.1791208,0,-6,1,-26,1,4,-23,-17,,2
1624715050.200352,3,1,-5,-24,4,4,-43,-20,,3
1624715050.200352,0,5,6,9,3,2,20,12,,3
1624715050.205327,-14,3,12,3,-4,4,-3,23,,0
1624715050.205327,-5,-2,36,0,0,-3,-12,-18,,0
1624715050.2198231,-6,-9,-11,14,2,0,-52,-26,,1
1624715050.2198231,-4,-2,19,2,-1,-12,8,1,,1
1624715050.2295291,-1,11,0,-21,1,7,1,25,,2
1624715050.2295291,-3,0,-8,46,2,-10,-44,-11,,2
1624715050.2515142,-7,-11,-17,-69,9,-5,-58,-29,,3
1624715050.2515142,4,5,42,58,-2,5,27,15,,3
1624715050.254654,9,6,-6,-20,-10,2,13,21,,0
1624715050.254654,-1,0,33,-9,0,5,-21,-10,,0
1624715050.2736242,-6,-10,-36,14,1,-10,-74,-19,,1
1624715050.2736242,0,5,0,60,-1,0,1,-8,,1
1624715050.276824,-2,7,9,-46,-10,7,-20,16,,2
1624715050.276824,-12,-4,-12,-9,-3,-6,-12,-14,,2
1624715050.2961411,29,4,-6,13,7,1,-41,-24,,3
1624715050.2961411,-1,-3,4,-2,3,2,21,19,,3
1624715050.299413,2,1,-14,-4,-13,-10,-32,6,,0
1624715050.299413,-3,-1,11,3,-1,4,-24,-2,,0
1624715050.318882,-4,-2,-27,-16,0,-2,-28,-22,,1
1624715050.318882,3,4,8,1,4,4,-1,9,,1
1624715050.3220758,11,15,11,8,0,-2,-16,15,,2
1624715050.3220758,-2,-3,0,-30,2,-4,-29,-11,,2
1624715050.341689,-8,-9,-20,-15,-3,-4,-25,-25,,3
1624715050.341689,2,-4,-4,-8,1,0,35,11,,3
1624715050.3460622,6,10,-2,-62,-9,4,-16,15,,0
1624715050.3460622,-1,-4,-12,29,-3,-3,-24,-4,,0
1624715050.364005,-9,-9,1,20,5,1,-19,-22,,1
1624715050.364005,26,3,-3,-8,2,-9,-1,16,,1
1624715050.367249,-34,-5,14,-40,-14,-4,-18,-2,,2
1624715050.367249,-23,-1,-1,-10,-1,5,33,-4,,2
1624715050.3864698,19,-5,-7,54,3,-1,-41,-17,,3
1624715050.3864698,-2,-1,-16,-128,-4,-1,40,15,,3
1624715050.389636,4,3,-33,5,-7,-2,-16,9,,0
1624715050.389636,-2,-11,-25,-13,-5,-8,-31,2,,0
1624715050.4076061,-9,3,-14,21,0,-2,-58,-61,,1
1624715050.4076061,1,-2,-9,23,8,3,4,23,,1
1624715050.417583,-5,-2,35,-8,-10,2,-6,1,,2
1624715050.417583,15,-3,-23,-48,-3,0,-5,7,,2
1624715050.4301429,-5,-4,6,63,5,-5,-27,-25,,3
1624715050.4301429,0,5,7,-4,-2,3,21,10,,3
1624715050.440033,0,5,4,7,-3,2,-27,5,,0
1624715050.440033,-11,-3,-11,-87,-3,-1,-4,-10,,0
1624715050.462168,-5,-8,-11,70,11,-3,-31,-24,,1
1624715050.462168,-3,-3,-4,8,-4,0,13,11,,1
1624715050.466689,-3,-2,32,15,-10,-1,-24,2,,2
1624715050.466689,-1,-4,-42,-43,-6,-9,-17,0,,2
1624715050.484064,14,0,2,39,8,-4,-52,-30,,3
1624715050.484064,-21,3,-4,-9,-3,-3,23,10,,3
1624715050.4872162,6,-3,8,-6,-5,-3,-73,0,,0
1624715050.4872162,6,5,8,-15,1,2,0,2,,0
1624715050.506047,-1,-8,-25,65,5,2,-15,-21,,1
1624715050.506047,1,1,-8,-26,2,-4,30,11,,1
1624715050.50915,2,0,-5,-35,-8,-3,-30,2,,2
1624715050.50915,-1,2,4,18,4,0,20,-6,,2
1624715050.528247,-4,-3,-5,46,6,0,21,-19,,3
1624715050.528247,3,7,-10,-66,-5,-3,26,17,,3
1624715050.530613,0,1,-10,-2,-9,-2,-34,1,,0
1624715050.530613,6,6,25,12,5,-2,38,2,,0
1624715050.5506492,-13,-11,-8,19,6,-1,-13,-34,,1
1624715050.5506492,30,6,-10,-11,2,-4,2,17,,1
1624715050.553162,-12,-2,45,27,-12,1,-15,-20,,2
1624715050.553162,26,2,-22,-68,-4,0,25,-5,,2
1624715050.5731058,-40,-9,-14,9,4,-1,-16,-23,,3
1624715050.5731058,4,-3,-11,33,1,1,59,16,,3
1624715050.575478,14,9,20,8,-10,0,-43,3,,0
1624715050.575478,-3,-2,-2,11,-2,-1,18,-3,,0
1624715050.59498,-5,-5,-2,-1,0,-7,-8,-24,,1
1624715050.59498,-3,-5,-7,0,0,0,20,-3,,1
1624715050.603657,1,-3,14,6,-7,-3,-20,-1,,2
1624715050.603657,2,6,-37,-28,2,-5,0,-7,,2
1624715050.626007,-3,-3,39,-19,8,-4,-12,-15,,3
1624715050.626007,4,6,18,71,8,7,81,19,,3
1624715050.629555,2,7,-7,-69,-13,2,-24,6,,0
1624715050.629555,0,2,8,21,2,0,-7,-11,,0
1624715050.649004,-28,-9,-17,20,4,3,-12,-19,,1
1624715050.649004,29,8,4,-11,-3,1,23,12,,1
1624715050.652334,-8,-1,-14,-16,-10,-1,-52,-11,,2
1624715050.652334,-4,-5,-6,1,0,-2,-3,-1,,2
1624715050.6714659,-6,-1,12,16,12,6,-7,-25,,3
1624715050.6714659,2,1,4,6,-3,1,6,17,,3
1624715050.674638,-6,9,31,-7,0,-8,-18,-11,,0
1624715050.674638,-3,-6,-33,-48,-3,-1,12,3,,0
1624715050.6939719,24,-1,-6,117,7,4,-5,-33,,1
1624715050.6939719,-35,-8,-18,-47,-5,-9,39,27,,1
1624715050.697154,10,1,-8,-12,-7,4,-67,-7,,2
1624715050.697154,8,16,45,42,8,0,9,-3,,2
1624715050.716935,-5,-8,-3,7,4,0,-24,-22,,3
1624715050.716935,-4,-12,-1,-14,6,3,19,14,,3
1624715050.720154,2,-4,-9,-11,-8,0,-56,-11,,0
1624715050.720154,28,12,49,46,4,3,-13,-3,,0
1624715050.7383249,-7,-7,-21,-7,6,0,-30,-14,,1
1624715050.7383249,-6,5,33,49,3,-2,16,6,,1
1624715050.747589,-2,5,-5,-69,-8,-4,-38,-7,,2
1624715050.747589,-6,-17,-54,12,-5,-4,-9,-8,,2
1624715050.75927,-7,-2,13,-7,-1,-15,-81,-27,,3
1624715050.75927,2,3,-29,-12,2,6,41,17,,3
1624715050.768682,0,-3,49,19,0,3,-45,-13,,0
1624715050.768682,-4,-5,0,6,1,-2,-42,-9,,0
1624715050.7899158,-7,-4,2,57,4,-5,-24,-25,,1
1624715050.7899158,1,0,-11,-59,-8,-4,36,11,,1
1624715050.791667,0,4,15,-20,-1,2,-62,-4,,2
1624715050.791667,-2,-5,-19,-3,-3,1,-17,-11,,2
1624715050.8128908,-2,3,0,12,8,-1,-12,-19,,3
1624715050.8128908,0,-5,2,52,5,2,-5,13,,3
1624715050.814005,5,10,-7,-47,-9,-5,-26,2,,0
1624715050.814005,0,-1,31,7,2,-6,-6,-2,,0
1624715050.834934,-2,-2,-12,-34,11,4,-19,-12,,1
1624715050.834934,-21,-4,3,17,-7,-4,36,16,,1
1624715050.836489,-8,4,15,26,-4,3,-17,-5,,2
1624715050.836489,-2,0,16,5,3,-5,-13,-7,,2
1624715050.858614,0,-1,15,0,6,-1,17,-12,,3
1624715050.858614,-4,-3,13,11,-1,-5,19,13,,3
1624715050.860961,1,4,-4,-8,-7,1,-21,-3,,0
1624715050.860961,-1,-4,24,47,-2,1,-14,-14,,0
1624715050.879786,-1,-7,-50,-49,4,-1,20,-20,,1
1624715050.879786,4,2,16,8,-5,9,29,26,,1
1624715050.888715,5,9,-6,-7,-1,1,-50,-15,,2
1624715050.888715,-1,0,-6,14,-4,-7,-6,-13,,2
1624715050.90214,0,-5,-4,-15,4,-1,1,-15,,3
1624715050.90214,3,11,49,14,5,5,7,12,,3
1624715050.912014,0,-8,-39,-2,-2,2,-10,2,,0
1624715050.912014,1,6,1,11,3,-1,-44,-13,,0
1624715050.9245079,-22,-10,-15,-12,7,2,33,-5,,1
1624715050.9245079,25,8,6,-35,2,0,-36,8,,1
1624715050.9344919,11,4,-3,35,-6,-5,-20,-6,,2
1624715050.9344919,-25,-17,-29,-19,2,2,-4,-7,,2
1624715050.95573,-7,-10,-21,1,0,-24,-31,-13,,3
1624715050.95573,0,-2,25,34,-1,-1,64,3,,3
1624715050.958217,5,6,6,32,-9,-1,-9,-6,,0
1624715050.958217,1,-3,-6,-70,-4,1,7,2,,0
1624715050.978513,-1,-1,23,50,16,0,9,-10,,1
1624715050.978513,8,2,19,42,10,6,15,11,,1
1624715050.9811049,2,6,-3,0,-10,-7,-11,-7,,2
1624715050.9811049,-2,1,15,8,6,-1,-21,-8,,2
1624715051.002219,-3,2,30,-44,5,-1,5,-11,,3
1624715051.002219,0,1,4,22,-4,-3,40,21,,3
1624715051.006182,1,3,-3,7,0,1,-1,-6,,0
1624715051.006182,0,-7,11,1,-2,1,-48,-14,,0
1624715051.023447,-3,0,5,1,1,6,19,1,,1
1624715051.023447,-4,-2,1,5,-2,-7,49,17,,1
1624715051.0265012,-4,-1,-5,-9,-8,-5,-30,-11,,2
1624715051.0265012,-4,3,4,8,-4,1,-6,3,,2
1624715051.046087,2,-4,-4,6,10,0,44,-14,,3
1624715051.046087,-6,1,12,-4,1,2,40,3,,3
1624715051.049269,4,3,14,1,-13,-4,-5,-2,,0
1624715051.049269,0,-3,-14,3,0,-6,-18,-6,,0
1624715051.067204,-14,-11,19,-27,-4,-2,17,-12,,1
1624715051.067204,14,8,13,60,16,9,46,22,,1
1624715051.0772312,7,4,57,55,-6,-5,-12,-6,,2
1624715051.0772312,1,-1,-30,-27,-5,-1,-15,-6,,2
1624715051.090143,-4,-1,-11,18,8,-2,31,-1,,3
1624715051.090143,-3,-1,7,-26,-7,1,27,20,,3
1624715051.099576,3,0,18,9,-3,4,-5,-2,,0
1624715051.099576,23,2,-12,-2,-2,-3,-39,-10,,0
1624715051.1211689,-3,-2,-40,-37,4,-5,13,-9,,1
1624715051.1211689,7,-2,-67,13,-1,-4,65,36,,1
1624715051.123853,-4,-12,-26,-22,-4,5,2,-15,,2
1624715051.123853,1,3,36,22,0,0,5,-4,,2
1624715051.1439848,-2,-6,-25,15,15,4,21,-5,,3
1624715051.1439848,1,1,10,-37,-1,2,49,21,,3
1624715051.147136,4,4,-9,40,-2,-2,9,7,,0
1624715051.147136,0,-3,-10,3,-3,5,-29,-5,,0
1624715051.16621,-5,3,-15,24,-1,2,-12,1,,1
1624715051.16621,2,8,6,8,5,-2,34,8,,1
1624715051.169506,1,1,1,-20,-10,-6,-12,-4,,2
1624715051.169506,-1,-7,-4,6,-2,0,-37,1,,2
1624715051.188565,-1,1,-5,30,11,-1,4,4,,3
1624715051.188565,5,6,2,-22,-2,1,40,31,,3
1624715051.191981,1,-1,-15,5,-2,2,-5,-9,,0
1624715051.191981,6,6,1,1,0,3,-17,0,,0
1624715051.210609,-32,-15,-28,9,7,0,-35,-8,,1
1624715051.210609,19,5,37,-12,-2,-5,74,23,,1
1624715051.219508,-2,1,-6,-50,-8,0,-10,-6,,2
1624715051.219508,-5,-8,-4,35,4,4,-45,-5,,2
1624715051.232266,-4,-3,-26,27,6,-2,27,-5,,3
1624715051.232266,5,6,35,-75,-4,-2,54,26,,3
1624715051.2421231,0,1,11,43,5,3,-9,-4,,0
1624715051.2421231,-2,-3,-53,-34,1,1,-23,-7,,0
1624715051.264661,-7,-5,1,-28,-1,-3,23,-13,,1
1624715051.264661,0,-6,13,-15,0,3,85,29,,1
1624715051.269681,3,-6,-68,-19,-6,-3,-14,-8,,2
1624715051.269681,2,-4,0,27,11,2,-43,-13,,2
1624715051.285865,-4,2,8,-39,3,-5,18,-1,,3
1624715051.285865,8,6,8,70,0,4,59,35,,3
1624715051.287711,1,2,6,29,-4,3,2,9,,0
1624715051.287711,-2,-1,-17,-76,-3,-7,-57,-14,,0
1624715051.308201,-6,-5,13,0,3,-9,0,-7,,1
1624715051.308201,5,10,13,-10,-7,-1,47,27,,1
1624715051.311167,2,-3,7,-7,-3,4,-13,-5,,2
1624715051.311167,-24,0,-3,-1,0,0,-18,-19,,2
1624715051.330636,-1,17,31,7,6,-7,9,-4,,3
1624715051.330636,8,0,31,0,2,5,77,32,,3
1624715051.333351,-2,-12,-33,2,-4,1,8,4,,0
1624715051.333351,-7,-6,-12,1,-2,-17,-70,-17,,0
1624715051.353235,1,2,-7,15,5,0,4,-4,,1
1624715051.353235,4,6,27,-12,-3,5,78,32,,1
1624715051.355467,6,5,-17,-19,-6,2,-18,-3,,2
1624715051.355467,-10,-7,2,3,-10,-1,-17,-14,,2
1624715051.383334,0,-1,-12,36,16,5,24,-7,,3
1624715051.383334,9,7,17,-96,-2,6,119,44,,3
1624715051.385952,0,1,-10,-18,-11,-9,-42,-21,,0
1624715051.385952,-5,-5,-41,-27,2,1,-3,-7,,0
1624715051.4059541,-4,-2,26,22,7,3,-5,-8,,1
1624715051.4059541,-7,-2,15,-19,-10,-14,68,45,,1
1624715051.408792,0,3,13,17,1,0,-26,-24,,2
1624715051.408792,-7,-5,-4,-6,-4,-1,-21,-13,,2
1624715051.4289742,-7,-4,-31,12,10,-1,2,9,,3
1624715051.4289742,1,4,63,55,-5,2,80,36,,3
1624715051.4321349,3,-1,17,-32,-4,5,11,0,,0
1624715051.4321349,-4,-10,-14,1,-3,-1,-45,-14,,0
1624715051.45205,-6,-1,5,-4,7,-2,25,0,,1
1624715051.45205,13,9,-23,-42,-6,4,81,43,,1
1624715051.45552,17,-5,-15,0,-1,4,9,-6,,2
1624715051.45552,-36,-1,6,8,2,1,-51,-13,,2
1624715051.4737122,0,-5,3,3,1,-1,31,4,,3
1624715051.4737122,6,6,5,-10,-5,3,73,34,,3
1624715051.476864,0,-11,-11,-1,6,9,-9,-1,,0
1624715051.476864,-3,-5,-19,35,7,5,-96,-30,,0
1624715051.495463,-3,-2,6,11,2,1,26,14,,1
1624715051.495463,4,2,15,-15,-8,0,60,37,,1
1624715051.505197,-1,1,0,1,-2,0,-22,-6,,2
1624715051.505197,-5,-16,-17,-35,-1,-4,-23,-19,,2
1624715051.517316,1,4,4,53,7,-3,29,7,,3
1624715051.517316,4,4,7,-102,-12,1,56,37,,3
1624715051.526916,22,6,42,38,-1,7,-3,-9,,0
1624715051.526916,-6,-12,-79,-5,-3,-10,-79,-35,,0
1624715051.539524,-17,-1,26,22,3,3,18,5,,1
1624715051.539524,3,1,-32,-25,-8,-6,44,39,,1
1624715051.549383,-4,2,25,20,1,7,-23,-8,,2
1624715051.549383,1,-3,-21,-37,-4,2,-15,-12,,2
1624715051.5707011,0,-7,-9,7,4,-1,2,6,,3
1624715051.5707011,4,0,10,-8,-3,2,86,40,,3
1624715051.573081,-1,1,-8,29,-6,0,-47,-9,,0
1624715051.573081,-2,-5,-18,-75,3,-1,-27,-15,,0
1624715051.593662,4,8,3,12,2,2,-11,0,,1
1624715051.593662,2,1,14,-15,-6,3,70,42,,1
1624715051.596382,-26,-13,-52,7,-1,-9,-16,-10,,2
1624715051.596382,17,1,-40,-53,-6,-2,-24,-19,,2
1624715051.6155899,0,-6,-41,-1,5,6,22,12,,3
1624715051.6155899,2,3,12,-11,-11,-5,33,42,,3
1624715051.617982,-4,8,17,8,-2,2,-58,-10,,0
1624715051.617982,-5,-2,13,17,5,-2,-27,-31,,0
1624715051.639528,1,9,-9,-2,2,9,16,18,,1
1624715051.639528,8,7,16,18,-6,-2,1,22,,1
1624715051.643466,0,-3,1,-53,1,6,-16,-1,,2
1624715051.643466,-5,-8,-1,23,0,-1,-41,-30,,2
1624715051.6606011,1,5,65,60,9,1,37,11,,3
1624715051.6606011,10,4,20,-29,-11,3,43,36,,3
1624715051.6627579,1,1,-37,-11,-3,-9,-38,-12,,0
1624715051.6627579,8,-5,-22,-1,0,-3,-45,-32,,0
1624715051.683617,-26,-1,10,39,4,4,5,12,,1
1624715051.683617,12,3,4,-74,2,7,38,33,,1
1624715051.6867409,2,11,18,-1,-5,-6,-36,-8,,2
1624715051.6867409,-1,-6,-10,9,1,-1,-40,-22,,2
1624715051.705108,0,7,-19,-10,0,-4,19,6,,3
1624715051.705108,33,8,-11,-10,-12,1,9,27,,3
1624715051.720572,-2,0,17,-42,5,5,13,3,,0
1624715051.720572,-7,-8,-37,-40,-3,3,-32,-20,,0
1624715051.727736,-2,-6,-1,32,3,3,20,15,,1
1624715051.727736,2,4,51,0,-9,-1,17,36,,1
1624715051.737674,-7,-7,0,-2,-1,-12,-67,-38,,2
1624715051.737674,-1,-3,-3,20,6,4,-21,-14,,2
1624715051.7586172,2,-5,9,-41,-1,1,22,15,,3
1624715051.7586172,6,16,23,17,-8,1,1,23,,3
1624715051.761819,21,4,4,-5,-7,-2,5,-6,,0
1624715051.761819,-42,-22,-28,17,9,-1,-26,-19,,0
1624715051.781934,4,-3,-16,-40,3,-3,36,12,,1
1624715051.781934,9,4,9,7,-14,-6,-33,19,,1
1624715051.78688,-23,0,25,8,3,2,8,-3,,2
1624715051.78688,21,2,-13,-11,-1,-1,-61,-33,,2
1624715051.804223,-4,-1,1,25,4,-3,17,7,,3
1624715051.804223,3,4,16,-9,-11,-5,-17,25,,3
1624715051.807411,-8,-1,-20,-45,-4,-2,-23,-12,,0
1624715051.807411,-2,0,18,60,1,-8,-58,-13,,0
1624715051.8258922,-5,-3,3,-9,6,1,45,-16,,1
1624715051.8258922,-1,4,12,-4,-13,5,-1,26,,1
1624715051.829119,8,6,-15,-13,-5,-19,-45,-8,,2
1624715051.829119,-18,-10,24,-4,5,-1,-36,-22,,2
1624715051.847098,0,-1,-26,8,3,0,26,13,,3
1624715051.847098,7,6,35,-2,-14,2,-11,17,,3
1624715051.857895,4,-7,-27,-3,-6,-1,2,7,,0
1624715051.857895,0,11,18,91,10,-9,-108,-37,,0
1624715051.870191,3,-5,-1,-105,-2,7,70,21,,1
1624715051.870191,33,7,-65,-44,-10,-4,-15,30,,1
1624715051.879694,-5,2,19,57,5,3,-14,-16,,2
1624715051.879694,-8,-11,-18,-27,-5,-2,-31,-23,,2
1624715051.9016142,0,1,-16,11,2,8,41,16,,3
1624715051.9016142,-4,4,5,-25,-14,-8,-61,10,,3
1624715051.9064782,3,0,-14,-16,-1,-5,-25,-17,,0
1624715051.9064782,-11,-2,41,5,2,1,-52,-27,,0
1624715051.923059,4,-3,-30,6,5,5,15,6,,1
1624715051.923059,10,-2,2,18,-5,0,-17,19,,1
1624715051.925249,-1,-1,8,-5,-16,-13,-41,-12,,2
1624715051.925249,-4,-5,-11,17,7,-10,-89,-26,,2
1624715051.945139,20,-3,-39,5,2,3,51,7,,3
1624715051.945139,-26,-3,-6,-11,-8,-4,-14,19,,3
1624715051.946912,-1,-5,-34,11,2,1,-21,-32,,0
1624715051.946912,-17,-8,1,-48,-1,-5,-32,-23,,0
1624715051.968959,31,9,-5,20,4,-3,30,16,,1
1624715051.968959,-2,1,12,-8,-16,3,-27,11,,1
1624715051.972107,-2,-5,-20,19,-1,-11,-23,-10,,2
1624715051.972107,-11,-10,-12,-1,0,-5,-47,-32,,2
1624715051.990983,0,-2,-10,-4,-1,2,-29,-1,,3
1624715051.990983,0,4,23,-14,-12,-7,-8,10,,3
1624715051.99722,-4,-11,-17,-18,-10,-6,-29,-5,,0
1624715051.99722,4,1,-29,16,8,2,-57,-17,,0
1624715052.013032,0,-3,19,30,4,0,38,16,,1
1624715052.013032,-3,2,10,-13,-7,2,-38,-4,,1
1624715052.021771,1,-2,-27,-17,0,4,-16,0,,2
1624715052.021771,-5,-16,-7,-16,4,-3,-23,-29,,2
1624715052.0434391,-7,-9,-69,-43,2,1,42,15,,3
1624715052.0434391,2,3,-7,0,-7,-6,-60,10,,3
1624715052.046082,3,3,13,20,-3,-3,12,-6,,0
1624715052.046082,-28,-7,0,16,8,1,-58,-30,,0
1624715052.066805,18,3,-11,-6,0,-6,49,2,,1
1624715052.066805,-1,3,18,-4,-13,-7,-41,7,,1
1624715052.070194,-7,-12,-29,43,-1,1,-58,-4,,2
1624715052.070194,-7,-2,5,14,6,-3,-68,-31,,2
1624715052.088453,3,1,-3,-12,-3,6,46,20,,3
1624715052.088453,1,0,-1,-28,-11,-7,-47,-1,,3
1624715052.0914948,-3,-1,8,21,10,2,31,-1,,0
1624715052.0914948,2,-3,-27,-1,5,-1,-66,-32,,0
1624715052.1109388,-2,0,11,12,6,3,0,16,,1
1624715052.1109388,8,-1,-13,-37,-7,6,14,16,,1
1624715052.113765,28,4,-20,-23,1,4,-7,-7,,2
1624715052.113765,-49,-9,0,16,5,4,-32,-18,,2
1624715052.133209,2,-2,-31,-11,-8,-12,29,13,,3
1624715052.133209,6,4,-13,-51,-14,-6,-58,-10,,3
1624715052.13626,-20,13,30,22,0,-3,-14,-10,,0
1624715052.13626,17,4,5,4,12,4,-9,-8,,0
1624715052.154291,-7,-1,17,53,4,2,10,8,,1
1624715052.154291,-1,2,7,-20,-12,-5,-48,1,,1
1624715052.162836,-4,0,-12,-3,1,2,11,-4,,2
1624715052.162836,-9,-14,18,71,5,-6,-43,-28,,2
1624715052.186605,5,-2,-12,-106,-3,4,40,25,,3
1624715052.186605,5,15,8,6,-3,4,31,0,,3
1624715052.189379,-5,-7,-18,-43,-4,-6,-4,-10,,0
1624715052.189379,8,-2,6,74,13,4,13,-10,,0
1624715052.2086341,2,5,-1,15,2,1,49,13,,1
1624715052.2086341,-4,2,-20,-18,-6,4,-22,-9,,1
1624715052.2116742,-13,-6,-4,-11,-3,-8,-12,-13,,2
1624715052.2116742,-5,-8,-33,12,6,-8,-19,-23,,2
1624715052.230881,-11,5,35,7,3,1,32,17,,3
1624715052.230881,22,6,12,-12,-10,-2,-2,3,,3
1624715052.2340548,-7,-5,2,7,0,0,7,-5,,0
1624715052.2340548,1,-3,-1,15,9,-7,-24,-25,,0
1624715052.2534301,-10,5,23,38,6,7,11,25,,1
1624715052.2534301,8,10,4,68,-13,-4,-18,-6,,1
1624715052.256651,0,9,8,-55,-1,4,-7,-3,,2
1624715052.256651,-6,-15,-20,27,5,-2,6,-24,,2
1624715052.277057,-1,-1,-9,4,2,7,61,13,,3
1624715052.277057,13,-3,-6,-17,-6,-6,-23,17,,3
1624715052.2813041,-8,0,2,6,1,-5,-29,-32,,0
1624715052.2813041,-1,-3,33,14,2,1,-2,-16,,0
1624715052.305708,0,2,-11,-14,4,1,16,18,,1
1624715052.305708,-1,2,-10,-47,-5,0,-20,0,,1
1624715052.308257,0,-4,-18,93,3,4,15,0,,2
1624715052.308257,0,-3,3,63,14,-6,-8,-11,,2
1624715052.3197598,4,-1,-2,1,2,1,4,4,,3
1624715052.3197598,-7,3,0,-47,-11,-2,-46,-5,,3
1624715052.329684,-1,0,-15,-20,-9,-11,-8,-10,,0
1624715052.329684,-13,-3,36,27,13,5,-13,-9,,0
1624715052.351051,22,10,16,40,5,-3,11,-14,,1
1624715052.351051,1,7,48,-40,-11,-9,-27,-8,,1
1624715052.353936,-6,1,-53,-77,-13,-8,-23,-11,,2
1624715052.353936,-7,-5,-5,19,9,-5,-9,-19,,2
1624715052.3738399,1,6,16,34,4,0,18,13,,3
1624715052.3738399,-5,5,50,37,-9,-1,-36,-5,,3
1624715052.376705,-4,-7,-15,-18,2,-2,-53,-7,,0
1624715052.376705,4,-6,-42,57,10,6,3,-9,,0
1624715052.397145,-1,2,10,0,-5,-12,-28,2,,1
1624715052.397145,-5,-1,-10,-14,-9,-1,5,-20,,1
1624715052.404373,-3,-7,-4,0,1,8,5,-2,,2
1624715052.404373,-5,-1,15,-2,1,-15,-16,-31,,2
1624715052.419111,2,6,14,35,6,6,24,13,,3
1624715052.419111,4,-6,-9,-77,-3,3,-10,6,,3
1624715052.422133,1,5,25,115,10,5,29,0,,0
1624715052.422133,-26,-10,13,-41,2,-3,-6,-19,,0
1624715052.4414332,27,8,-12,25,-6,-6,21,7,,1
1624715052.4414332,21,0,-15,-24,-10,6,-34,3,,1
1624715052.4446862,-45,-6,-3,22,5,2,10,-10,,2
1624715052.4446862,-5,-5,24,29,10,-2,1,-14,,2
1624715052.4620092,1,-5,-45,10,2,-4,-49,12,,3
1624715052.4620092,127,123,114,127,123,120,115,127,,3
1624715052.472482,-4,4,26,-9,2,-8,-77,-19,,0
1624715052.472482,3,-2,15,90,9,4,44,13,,0
1624715052.48419,7,5,-25,-67,-6,8,55,43,,1
1624715052.48419,127,127,127,127,126,127,127,127,,1
1624715052.494329,-6,-8,44,32,13,-4,-11,-20,,2
1624715052.494329,-3,9,27,38,2,4,11,16,,2
1624715052.5171049,0,2,14,-71,-10,0,-20,-4,,3
1624715052.5171049,127,127,127,95,118,122,97,127,,3
1624715052.520024,-23,-6,11,9,8,9,43,28,,0
1624715052.520024,22,5,-12,-10,-6,-9,-17,-13,,0
1624715052.539159,-36,-5,34,46,0,-3,-22,-11,,1
1624715052.539159,126,126,127,127,127,119,92,120,,1
1624715052.5422552,5,8,22,-23,-12,2,30,31,,2
1624715052.5422552,-1,0,-31,1,4,3,-12,-4,,2
1624715052.562144,0,-1,-23,-18,2,0,-56,-25,,3
1624715052.562144,127,127,127,127,27,107,114,127,,3
1624715052.567038,0,-3,2,-5,-4,-8,-6,-17,,0
1624715052.567038,-6,-5,-11,11,3,2,-27,-13,,0
1624715052.5840268,-1,-7,-30,-6,6,3,-10,0,,1
1624715052.5840268,127,127,113,0,127,127,127,127,,1
1624715052.587192,1,-1,-1,-3,-2,-2,-29,-12,,2
1624715052.587192,-4,-7,23,-34,-1,-3,-3,-12,,2
1624715052.6069279,3,2,20,54,3,1,41,29,,3
1624715052.6069279,127,127,127,107,127,127,127,127,,3
1624715052.610102,-40,-11,-15,-6,1,1,-19,-21,,0
1624715052.610102,3,-4,10,10,2,-1,9,9,,0
1624715052.626774,4,16,50,22,-10,-1,-25,11,,1
1624715052.626774,127,127,127,127,127,127,127,127,,1
1624715052.6373801,-1,0,1,14,5,6,30,6,,2
1624715052.6373801,5,4,37,-50,-11,-4,7,30,,2
1624715052.649921,1,-4,-20,8,5,6,-17,-1,,3
1624715052.649921,127,127,127,127,119,126,104,127,,3
1624715052.662656,8,6,14,29,-7,-1,42,20,,0
1624715052.662656,-3,-4,-19,-100,-7,3,-2,-2,,0
1624715052.681399,-4,-1,3,-53,0,-3,-57,-26,,1
1624715052.681399,124,122,117,99,127,127,112,125,,1
1624715052.6846368,-5,3,1,-1,1,-2,-22,-3,,2
1624715052.6846368,-3,-4,34,7,0,-3,-54,-29,,2
1624715052.703984,-1,-1,8,-6,1,-6,10,12,,3
1624715052.703984,123,122,111,95,127,127,127,127,,3
1624715052.7071419,0,3,-8,-44,7,5,10,-7,,0
1624715052.7071419,-1,2,-1,50,2,-4,16,-2,,0
1624715052.724443,6,6,3,-98,-9,-4,90,39,,1
1624715052.724443,127,125,127,120,125,127,127,127,,1
1624715052.7345521,-4,-1,-3,58,13,4,0,-24,,2
1624715052.7345521,5,1,34,33,1,2,8,15,,2
1624715052.7476091,-1,-4,-20,-14,-11,2,6,-2,,3
1624715052.7476091,127,127,127,127,120,125,113,127,,3
1624715052.757648,-6,-2,7,16,4,-7,3,4,,0
1624715052.757648,-9,-8,6,-16,-12,0,-38,-15,,0
1624715052.7788,-11,-6,-42,-14,-7,0,-10,-9,,1
1624715052.7788,127,127,120,127,127,127,119,125,,1
1624715052.781852,3,-12,-38,-64,-16,6,0,35,,2
1624715052.781852,-1,-4,-1,41,-8,0,-1,-21,,2
1624715052.8016121,-4,-8,-5,-59,4,-6,-53,-29,,3
1624715052.8016121,125,125,127,127,127,127,77,118,,3
1624715052.8057442,0,-4,-24,-22,-8,3,4,-12,,0
1624715052.8057442,-4,1,18,44,4,-13,-72,-32,,0
1624715052.821989,1,0,-9,14,4,-1,24,2,,1
1624715052.821989,126,123,123,127,127,127,127,127,,1
1624715052.8322518,-9,-3,-7,15,-6,-1,-44,-31,,2
1624715052.8322518,0,-3,16,-75,2,1,26,9,,2
1624715052.844516,4,5,12,-7,-8,1,23,38,,3
1624715052.844516,127,127,127,127,127,127,127,127,,3
1624715052.855084,-6,-8,28,45,12,-1,-14,-3,,0
1624715052.855084,3,0,-2,52,3,8,110,36,,0
1624715052.876389,0,4,25,-7,-5,1,-31,-3,,1
1624715052.876389,127,127,127,127,127,127,110,127,,1
1624715052.878863,1,-1,-6,-42,-3,-5,-18,13,,2
1624715052.878863,-1,16,37,54,-5,-6,-21,-25,,2
1624715052.898711,3,-3,-12,-36,-4,1,-22,-3,,3
1624715052.898711,127,115,127,127,127,125,100,127,,3
1624715052.901925,1,-2,6,1,2,0,-23,-9,,0
1624715052.901925,-1,-8,-6,-44,0,6,-11,-3,,0
1624715052.919242,3,2,4,41,12,-4,34,0,,1
1624715052.919242,127,126,99,127,127,127,121,121,,1
1624715052.934207,0,-3,-1,-20,-2,4,31,-4,,2
1624715052.934207,-12,-14,-40,-12,10,-4,0,-28,,2
1624715052.942008,5,5,23,13,-25,0,43,32,,3
1624715052.942008,127,127,126,114,97,110,127,127,,3
1624715052.9512472,-1,-2,-21,0,1,-1,-43,-48,,0
1624715052.9512472,-1,-1,11,2,-2,-4,7,1,,0
1624715052.973394,0,2,5,40,-8,4,-12,12,,1
1624715052.973394,125,127,127,98,23,102,127,127,,1
1624715052.97595,-1,-5,-14,-1,-5,-8,-13,4,,2
1624715052.97595,1,3,6,21,-5,4,-19,7,,2
1624715052.996311,-4,-8,-3,-39,-9,-1,-15,-4,,3
1624715052.996311,127,126,122,127,93,121,127,122,,3
1624715053.000473,0,-2,5,2,2,-1,-33,0,,0
1624715053.000473,0,-3,12,-17,1,2,-23,-12,,0
1624715053.0169768,-2,-6,-22,-5,5,4,-35,-22,,1
1624715053.0169768,122,118,121,125,82,111,98,121,,1
1624715053.026665,-2,-12,-37,-8,-2,3,-65,-10,,2
1624715053.026665,-1,-5,-21,-14,7,0,-39,-22,,2
1624715053.048172,-1,-2,-14,-45,3,-3,38,7,,3
1624715053.048172,127,127,127,127,79,126,127,127,,3
1624715053.051158,-2,-3,16,19,2,2,-25,-23,,0
1624715053.051158,-1,1,4,-1,36,10,36,11,,0
1624715053.071188,2,6,17,0,-51,-10,-12,15,,1
1624715053.071188,127,127,127,77,104,123,127,127,,1
1624715053.0734231,-3,-4,-30,7,-12,0,13,-13,,2
1624715053.0734231,3,6,9,-18,7,10,57,45,,2
1624715053.093179,1,-8,-56,-32,20,6,-1,-12,,3
1624715053.093179,123,127,122,109,127,126,110,119,,3
1624715053.095912,2,2,14,3,7,5,12,11,,0
1624715053.095912,2,0,-10,14,72,13,-24,-25,,0
1624715053.100418,-2,-5,-10,-18,-128,-39,-3,-12,,1
1624715053.100418,-2,-6,11,38,18,2,-1,-9,,1
1624715053.108188,6,5,25,-48,26,5,56,19,,2
1624715053.108188,-1,-7,-16,-40,31,9,-21,-1,,2
1624715053.1095738,-1,3,10,-1,-33,-5,-6,-18,,3
1624715053.1095738,-2,-6,-7,33,80,22,13,-15,,3
1624715053.1109388,1,2,15,-8,-62,-17,19,7,,0
1624715053.1109388,-4,7,15,-26,-120,-21,-79,-20,,0
1624715053.115053,-1,1,-8,-11,4,2,-5,-2,,1
1624715053.115053,2,2,28,19,28,7,12,2,,1
1624715053.1163561,1,2,-26,-9,60,5,24,16,,2
1624715053.1163561,0,1,21,-2,-39,-16,-13,5,,2
1624715053.123588,-1,0,-18,-9,1,-1,-13,-3,,3
1624715053.123588,-1,-3,-6,30,15,3,11,7,,3
1624715053.126457,-1,1,5,-14,-7,-1,31,-1,,0
1624715053.126457,2,10,-9,6,-5,-3,-14,4,,0
1624715053.129406,-4,-6,-11,-29,13,2,-16,-3,,1
1624715053.129406,-2,-6,-10,28,18,10,-39,-6,,1
1624715053.130107,0,-1,10,-11,-26,-24,61,12,,2
1624715053.130107,1,6,2,-2,3,8,-17,-5,,2
1624715053.137739,-2,-2,2,22,-1,3,-35,-5,,3
1624715053.137739,4,-3,-8,-52,9,4,43,-2,,3
1624715053.1385999,0,-2,-21,-25,-2,-16,-51,3,,0
1624715053.1385999,1,6,24,4,-5,2,-37,-3,,0
1624715053.1451142,-1,-3,-7,20,-1,-4,-29,-3,,1
1624715053.1451142,-1,-3,-8,10,7,5,20,-2,,1
1624715053.153196,-1,-3,1,-8,-3,1,36,16,,2
1624715053.153196,-1,2,9,-8,-6,-3,-10,-4,,2
1624715053.1546009,-6,-12,-14,5,-2,0,-30,-4,,3
1624715053.1546009,-4,7,61,54,13,-4,25,-7,,3
1624715053.1559832,7,5,-11,-44,-4,1,28,22,,0
1624715053.1559832,0,7,6,12,-7,-8,40,-7,,0
1624715053.160484,-2,-4,-6,13,3,1,-19,5,,1
1624715053.160484,-5,-8,4,12,5,-4,26,-4,,1
1624715053.1629682,5,7,6,-10,-6,1,52,20,,2
1624715053.1629682,0,3,7,-10,-8,-5,-17,-3,,2
1624715053.1675332,-5,-9,-6,-20,-7,-4,-90,-13,,3
1624715053.1675332,3,1,-4,41,20,7,46,7,,3
1624715053.1690931,0,5,10,2,-5,-7,38,-3,,0
1624715053.1690931,-1,2,5,-3,-2,-1,-21,-5,,0
1624715053.1747782,-3,-6,-9,-4,2,2,-14,-6,,1
1624715053.1747782,2,-7,-25,1,2,-4,27,-2,,1
1624715053.175884,0,7,9,-5,-3,1,87,18,,2
1624715053.175884,2,-4,3,-12,-9,-1,-11,-4,,2
1624715053.18324,-2,-3,1,-3,1,1,-9,-6,,3
1624715053.18324,-4,-11,-23,6,3,2,9,-3,,3
1624715053.185955,1,6,14,4,8,4,113,17,,0
1624715053.185955,1,2,-2,-12,-7,-5,-10,-7,,0
1624715053.189918,-4,-5,-5,-3,0,4,-11,-3,,1
1624715053.189918,1,-1,7,26,6,6,18,0,,1
1624715053.190967,4,4,6,7,60,13,57,21,,2
1624715053.190967,-1,-1,-1,-25,-64,-27,-49,-12,,2
1624715053.1984031,-3,-4,-5,6,-17,-10,-28,-9,,3
1624715053.1984031,-3,-4,-4,1,-13,-7,14,-6,,3
1624715053.199869,3,4,-7,-23,-3,4,83,22,,0
1624715053.199869,-6,-6,-29,7,51,-3,-39,-12,,0
1624715053.205033,-6,-17,51,21,97,14,-19,-9,,1
1624715053.205033,-4,25,2,-2,-33,-2,2,-13,,1
1624715053.2064261,2,9,8,-6,-2,1,69,15,,2
1624715053.2064261,4,-5,-8,-4,0,7,1,1,,2
1624715053.212523,-2,-9,-18,4,9,6,20,7,,3
1624715053.212523,-4,-9,-13,-14,58,-11,-1,-11,,3
1624715053.213835,6,10,33,60,15,6,51,14,,0
1624715053.213835,-8,-10,-34,-128,-17,1,-1,-1,,0
1624715053.220766,2,5,30,91,8,2,-10,2,,1
1624715053.220766,-1,4,-9,-8,8,0,10,0,,1
1624715053.223509,2,3,5,13,2,3,84,23,,2
1624715053.223509,1,6,20,-6,2,1,-22,-6,,2
1624715053.227555,-3,-1,1,6,16,9,-19,-6,,3
1624715053.227555,5,3,-15,-24,-37,-10,13,1,,3
1624715053.228566,3,5,1,-14,-6,2,25,18,,0
1624715053.228566,-5,-1,-1,3,0,3,-17,-6,,0
1624715053.2350342,-1,-1,-7,9,14,4,-24,-5,,1
1624715053.2350342,-2,-1,-4,4,27,2,3,0,,1
1624715053.236525,3,4,16,-18,-34,-4,60,17,,2
1624715053.236525,-3,-6,-15,-1,-5,4,-17,-8,,2
1624715053.243521,2,5,-6,9,-1,1,3,-1,,3
1624715053.243521,-5,-2,3,10,8,-2,-4,-13,,3
1624715053.2466292,2,-4,22,-15,-5,1,61,19,,0
1624715053.2466292,3,0,-13,16,15,5,-20,-3,,0
1624715053.250129,1,2,-16,-37,7,-1,-22,-2,,1
1624715053.250129,0,-1,16,28,-10,-5,5,1,,1
1624715053.251206,1,6,18,-20,8,5,68,18,,2
1624715053.251206,0,4,3,4,-21,-1,-20,-2,,2
1624715053.258571,-2,-3,18,3,-36,-4,-13,-2,,3
1624715053.258571,-2,-2,-6,5,45,6,-7,-8,,3
1624715053.2601962,1,0,13,-2,-19,-2,56,12,,0
1624715053.2601962,-1,4,-6,-9,-14,2,-16,-6,,0
1624715053.26585,1,-4,-6,17,12,9,-26,-4,,1
1624715053.26585,-1,3,3,3,-49,-2,12,-1,,1
1624715053.26738,1,-2,13,-39,-6,0,85,26,,2
1624715053.26738,-4,-2,6,3,-10,-2,-23,-21,,2
1624715053.273313,-2,-8,-11,-21,1,-1,-30,-4,,3
1624715053.273313,4,4,10,-9,30,7,24,4,,3
1624715053.274836,6,6,1,-51,-24,-5,73,22,,0
1624715053.274836,-5,-3,-3,9,5,5,-16,-6,,0
1624715053.281718,-4,3,8,1,-19,-21,-38,-12,,1
1624715053.281718,-1,-5,-14,-3,-12,-8,3,7,,1
1624715053.2848089,3,2,14,-2,-9,-3,62,0,,2
1624715053.2848089,-6,-4,-19,-24,-26,-7,-35,-10,,2
1624715053.287919,-2,-6,-5,5,2,2,-11,-5,,3
1624715053.287919,-1,-1,2,13,27,5,-10,1,,3
1624715053.289093,3,0,-1,-13,-15,2,82,25,,0
1624715053.289093,-3,-2,2,-1,-2,-3,-29,-5,,0
1624715053.295858,-2,9,-1,7,0,-1,-31,-9,,1
1624715053.295858,-3,-1,3,-4,5,1,6,-5,,1
1624715053.2973828,4,2,9,2,-22,0,55,21,,2
1624715053.2973828,-6,-5,6,4,25,-2,-39,-9,,2
1624715053.319098,-1,-4,-51,4,15,1,-22,-7,,3
1624715053.319098,0,5,16,4,-43,-16,-7,-4,,3
1624715053.323928,3,-4,0,-1,36,17,51,19,,0
1624715053.323928,-1,20,13,-28,-76,-33,-78,-15,,0
1624715053.3417401,-4,-10,-19,-7,-13,3,-23,-6,,1
1624715053.3417401,-1,-3,-17,32,16,2,16,-2,,1
1624715053.345074,7,6,30,-16,3,-3,44,13,,2
1624715053.345074,-5,-7,-12,-10,11,-8,-40,-1,,2
1624715053.363709,-1,2,6,17,6,-1,-22,-8,,3
1624715053.363709,-4,-1,-5,17,22,-3,-18,-8,,3
1624715053.3664541,0,7,10,-69,-25,-3,30,13,,0
1624715053.3664541,4,-1,-9,5,7,8,8,6,,0
1624715053.3842618,2,3,30,28,7,4,-34,-3,,1
1624715053.3842618,-1,-4,2,7,2,3,6,1,,1
1624715053.3947048,1,10,17,-7,-5,5,26,18,,2
1624715053.3947048,-3,-3,-7,-6,-14,-7,-25,-22,,2
1624715053.4070249,-2,-5,19,15,1,0,-46,-2,,3
1624715053.4070249,0,3,16,16,14,5,25,-15,,3
1624715053.4171488,-1,-6,-13,-44,-47,-9,10,13,,0
1624715053.4171488,-1,16,14,0,-47,-17,19,-1,,0
1624715053.4390779,3,-14,7,31,6,1,-40,-20,,1
1624715053.4390779,-1,-3,-22,-21,22,1,-25,0,,1
1624715053.4431949,6,3,16,-1,-4,4,51,13,,2
1624715053.4431949,-13,12,-3,0,18,-3,-8,-4,,2
1624715053.4447849,0,-17,5,-17,-29,-10,-39,-12,,3
1624715053.4447849,-10,-13,-21,6,23,9,15,-2,,3
1624715053.445648,9,29,16,-11,-10,2,18,10,,0
1624715053.445648,13,-17,-24,20,25,13,6,2,,0
1624715053.453014,-14,-4,8,7,-98,-21,-48,-12,,1
1624715053.453014,0,7,63,-20,-5,8,29,16,,1
1624715053.45401,5,7,-27,-31,-38,-3,4,26,,2
1624715053.45401,-10,-50,-7,10,-13,-9,-15,-67,,2
1624715053.461921,12,50,36,12,16,1,-16,6,,3
1624715053.461921,4,-5,43,12,59,14,21,66,,3
1624715053.464374,-3,6,-4,-54,-121,-28,30,8,,0
1624715053.464374,-21,-14,-18,23,34,1,-42,-128,,0
1624715053.467915,46,21,-11,3,-18,-9,-59,44,,1
1624715053.467915,58,-10,-18,23,16,17,61,127,,1
1624715053.468943,-49,10,17,0,17,16,-37,-91,,2
1624715053.468943,-41,-61,58,-34,-9,32,34,26,,2
1624715053.475897,55,31,-81,19,-28,-10,41,127,,3
1624715053.475897,127,106,-3,-3,9,-31,49,127,,3
1624715053.477089,7,-77,40,69,127,127,-84,-74,,0
1624715053.477089,-128,-128,-114,-50,-33,-92,127,29,,0
1624715053.484176,17,-7,17,-30,84,51,4,115,,1
1624715053.484176,-5,127,95,-21,-128,64,-84,-78,,1
1624715053.487047,18,-49,-128,-1,-34,-90,-55,127,,2
1624715053.487047,8,-19,-114,-49,47,-128,-33,-21,,2
1624715053.490504,99,-63,124,39,24,127,-84,4,,3
1624715053.490504,65,127,51,0,99,29,-128,-128,,3
1624715053.491638,-36,-112,-20,-12,34,103,10,127,,0
1624715053.491638,3,-2,-51,-18,-37,-27,56,90,,0
1624715053.49848,47,-41,127,105,127,-98,10,127,,1
1624715053.49848,-13,127,11,-51,-128,15,67,127,,1
1624715053.5002081,18,-7,-39,-11,-20,57,-13,-37,,2
1624715053.5002081,-128,-128,73,55,-29,-128,-80,-128,,2
1624715053.505318,-72,-109,-84,-63,-128,2,14,59,,3
1624715053.505318,-21,-6,102,-78,-23,-4,22,122,,3
1624715053.5066051,113,113,15,112,127,123,21,127,,0
1624715053.5066051,-49,-28,9,-70,-82,93,6,-128,,0
1624715053.5133061,53,-50,33,91,-55,-128,-19,127,,1
1624715053.5133061,-78,55,-95,-128,-128,-72,-128,-7,,1
1624715053.514812,81,-14,3,90,42,30,93,127,,2
1624715053.514812,-128,-108,43,-6,-63,-128,-98,89,,2
1624715053.521182,40,-7,127,24,46,127,102,-128,,3
1624715053.521182,-7,-43,-27,37,127,74,119,127,,3
1624715053.524728,-8,120,37,24,-128,-60,-128,-97,,0
1624715053.524728,-119,-128,-128,-128,-128,-35,-114,116,,0
1624715053.527597,68,95,-128,105,127,-58,-46,127,,1
1624715053.527597,-119,-53,-7,-73,52,22,-20,-128,,1
1624715053.528824,127,123,127,-19,-24,-128,-36,75,,2
1624715053.528824,15,10,55,59,13,127,-74,95,,2
1624715053.5354629,-110,-128,41,84,127,127,-31,-128,,3
1624715053.5354629,-81,-54,53,6,41,-128,97,127,,3
1624715053.537002,-36,12,127,23,49,51,9,127,,0
1624715053.537002,-2,-22,-108,127,127,32,-119,62,,0
1624715053.5434601,127,77,77,51,-64,35,127,-52,,1
1624715053.5434601,-3,-74,-91,-82,-128,-128,-128,34,,1
1624715053.5465338,-96,-128,92,-17,-23,100,38,36,,2
1624715053.5465338,35,-57,32,-11,-18,-35,49,91,,2
1624715053.5501592,-76,-21,13,-10,-95,-128,-122,-128,,3
1624715053.5501592,-29,14,-10,-91,101,127,127,127,,3
1624715053.551209,-33,-29,72,52,74,-42,74,127,,0
1624715053.551209,87,-16,-1,-30,-128,-128,99,50,,0
1624715053.564738,20,29,21,-5,127,127,67,62,,1
1624715053.564738,55,-17,-32,127,-128,-128,126,52,,1
1624715053.572266,-128,-106,-38,-77,-128,-128,-128,-128,,2
1624715053.572266,58,0,34,9,62,113,127,127,,2
1624715053.5870988,37,-24,11,-34,-15,-37,-128,-46,,3
1624715053.5870988,17,-39,-56,-10,-54,-109,28,-18,,3
1624715053.595542,-128,-25,44,-81,-128,-60,-128,45,,0
1624715053.595542,121,105,89,78,65,37,-73,-128,,0
1624715053.6104069,-109,-38,-7,-77,-128,-92,-5,33,,1
1624715053.6104069,127,111,30,-29,4,-30,127,127,,1
1624715053.611681,-69,-49,125,63,127,127,113,8,,2
1624715053.611681,62,-16,-8,-25,127,45,-57,117,,2
1624715053.6248052,-21,-8,-21,-13,-48,-128,-96,-117,,3
1624715053.6248052,38,127,50,44,-32,127,51,3,,3
1624715053.631976,127,68,-2,40,-31,-128,111,127,,0
1624715053.631976,-12,-34,-49,20,35,84,-85,-128,,0
1624715053.662417,-44,75,46,-112,-40,-67,11,127,,1
1624715053.662417,23,-70,24,-42,-52,27,109,13,,1
1624715053.671437,-31,-59,-21,62,-74,86,127,-13,,2
1624715053.671437,35,-58,127,61,1,-72,-128,127,,2
1624715053.693658,-128,-16,-128,36,127,127,-58,-128,,3
1624715053.693658,85,17,127,-128,12,50,127,127,,3
1624715053.696855,111,21,27,110,-10,77,127,127,,0
1624715053.696855,-67,-52,-54,24,127,-98,-128,-5,,0
1624715053.7161012,0,-26,10,84,-128,-128,127,71,,1
1624715053.7161012,-23,-15,31,-58,-128,13,127,-128,,1
1624715053.7199502,-12,-17,-25,-3,105,59,92,127,,2
1624715053.7199502,-24,-43,122,19,62,70,104,127,,2
1624715053.7385678,104,-67,3,17,127,124,82,-128,,3
1624715053.7385678,-58,-50,-87,-94,-128,112,127,127,,3
1624715053.747645,-96,-4,26,-19,-45,-128,-16,-128,,0
1624715053.747645,3,-42,-1,82,-51,-25,-24,-105,,0
1624715053.7685802,-82,-53,-128,-78,95,18,-128,-128,,1
1624715053.7685802,105,75,64,-15,51,64,-57,107,,1
1624715053.771349,-128,53,43,21,29,28,-84,-128,,2
1624715053.771349,62,-46,127,74,45,-122,-55,9,,2
1624715053.798437,-128,-35,-128,-76,83,103,-11,43,,3
1624715053.798437,90,1,-18,95,-9,86,127,19,,3
1624715053.800898,-36,-61,-26,-87,-128,-6,-104,-128,,0
1624715053.800898,-128,24,3,-59,-17,104,48,35,,0
1624715053.8126981,21,-65,-128,-21,-128,-128,-42,127,,1
1624715053.8126981,-44,92,-58,-16,-23,17,-125,-128,,1
1624715053.821991,48,-20,13,-116,71,84,-50,127,,2
1624715053.821991,-32,-8,3,65,-29,127,-128,-106,,2
1624715053.8346372,102,127,49,25,-128,-128,99,-50,,3
1624715053.8346372,-128,-41,-118,-55,-69,127,-117,-119,,3
1624715053.844609,96,-110,74,18,127,127,-76,46,,0
1624715053.844609,-128,65,-101,-62,58,-31,-38,-9,,0
1624715053.866535,-113,-90,67,-24,-127,-64,127,97,,1
1624715053.866535,123,34,84,-2,127,-36,-128,-128,,1
1624715053.869385,-128,-128,36,50,-107,-128,62,79,,2
1624715053.869385,19,-57,-6,-61,61,127,-41,-92,,2
1624715053.887577,-30,8,35,40,-96,-128,74,127,,3
1624715053.887577,-36,40,-114,-4,127,127,50,-128,,3
1624715053.897078,32,78,-16,-97,-128,-127,-128,127,,0
1624715053.897078,-21,-70,-58,-41,-115,-39,127,127,,0
1624715053.910849,59,40,127,-105,-128,59,74,127,,1
1624715053.910849,-128,27,-23,81,113,-42,-29,-58,,1
1624715053.91381,78,-61,15,95,-63,89,87,40,,2
1624715053.91381,35,-82,40,-128,-128,-128,-104,-23,,2
1624715053.9329221,-97,-9,-41,127,-14,67,-103,-126,,3
1624715053.9329221,-17,-85,-78,-75,33,127,65,127,,3
1624715053.942278,-44,-17,17,-102,-51,-120,-29,-47,,0
1624715053.942278,127,1,103,127,52,127,104,127,,0
1624715053.963711,-54,18,124,127,37,-128,127,127,,1
1624715053.963711,-8,127,60,11,-19,40,127,-87,,1
1624715053.96657,-56,-128,55,-128,-128,-68,127,125,,2
1624715053.96657,-9,7,57,-69,-47,127,-2,-128,,2
1624715053.986342,-20,55,-93,71,127,-99,-128,-78,,3
1624715053.986342,55,22,91,-121,-103,-1,127,127,,3
1624715053.989301,-101,-1,-87,40,-41,127,-60,-128,,0
1624715053.989301,90,49,-120,-106,-106,-128,127,-128,,0
1624715054.007649,60,-73,23,-28,-128,104,127,127,,1
1624715054.007649,-128,31,49,56,42,127,-128,-128,,1
1624715054.016444,127,-7,112,-87,127,-102,-29,6,,2
1624715054.016444,-21,127,11,127,70,92,-52,63,,2
1624715054.029391,-128,-128,-51,-50,-4,14,-128,-48,,3
1624715054.029391,76,66,-128,127,-2,30,28,-128,,3
1624715054.041188,4,-81,127,-128,-85,-128,90,127,,0
1624715054.041188,107,37,78,79,-128,50,127,127,,0
1624715054.060982,-128,-24,36,-38,-89,-98,-128,-128,,1
1624715054.060982,127,22,-128,74,58,127,-30,-128,,1
1624715054.0637991,-33,-40,84,-128,-128,-128,-24,24,,2
1624715054.0637991,84,127,70,124,83,-78,-25,1,,2
1624715054.0835772,81,-1,-93,-98,-128,-20,127,127,,3
1624715054.0835772,-37,-86,57,-1,-46,-31,9,10,,3
1624715054.08672,-23,7,5,-2,66,127,-33,114,,0
1624715054.08672,73,127,-2,-82,-128,-103,114,88,,0
1624715054.1047769,-116,-128,-42,26,7,-40,-73,-79,,1
1624715054.1047769,-66,-43,75,40,127,69,-54,9,,1
1624715054.113898,127,127,127,-128,-128,-19,127,8,,2
1624715054.113898,46,7,87,-37,-37,-128,-128,-128,,2
1624715054.136066,-63,49,91,27,47,127,-3,-90,,3
1624715054.136066,-31,-8,-12,127,-80,-80,127,127,,3
1624715054.137943,-15,-32,-69,-98,91,44,11,-128,,0
1624715054.137943,-128,-7,-13,-61,-50,-9,-24,-128,,0
1624715054.1590688,114,-10,-128,-25,127,19,-97,127,,1
1624715054.1590688,127,127,21,-7,-128,90,109,-128,,1
1624715054.161935,41,37,-28,8,-14,-117,104,127,,2
1624715054.161935,-28,-39,-32,-7,-28,-91,-65,-128,,2
1624715054.181168,58,21,17,127,20,44,15,127,,3
1624715054.181168,25,56,127,-21,-10,127,-54,-128,,3
1624715054.183827,-79,-6,-66,45,77,-128,-128,127,,0
1624715054.183827,81,66,-128,-124,-11,-15,-102,-54,,0
1624715054.202533,-59,-88,99,-50,-128,124,127,29,,1
1624715054.202533,105,54,58,80,127,-100,31,113,,1
1624715054.211693,-70,-50,-18,115,110,127,-128,-128,,2
1624715054.211693,-50,-90,-75,-128,-128,-128,127,127,,2
1624715054.224701,30,-27,-29,-42,-92,-101,-128,-128,,3
1624715054.224701,28,-80,27,55,-128,-72,127,127,,3
1624715054.2341492,-128,-77,12,-97,48,-19,-128,-128,,0
1624715054.2341492,-66,51,-95,32,36,84,-67,89,,0
1624715054.256372,127,-126,-39,-67,32,120,-128,20,,1
1624715054.256372,-16,127,41,20,123,-128,107,28,,1
1624715054.259274,-77,0,17,127,127,127,-63,10,,2
1624715054.259274,-64,-128,-128,-128,-128,-128,-50,-128,,2
1624715054.2794082,-103,-68,44,56,-128,-17,94,127,,3
1624715054.2794082,124,127,-128,-102,-57,18,13,91,,3
1624715054.2835681,13,-110,122,-45,-80,-77,-96,-11,,0
1624715054.2835681,-33,7,44,5,81,127,61,-6,,0
1624715054.301276,41,-128,-43,18,96,-128,13,-91,,1
1624715054.301276,-46,31,-22,25,-100,80,29,127,,1
1624715054.303908,127,0,62,127,119,-128,34,86,,2
1624715054.303908,-82,-34,-22,53,31,100,-72,96,,2
1624715054.322473,-128,-35,125,-58,-128,-36,52,-128,,3
1624715054.322473,127,51,-113,-66,-55,-128,127,127,,3
1624715054.331198,-28,11,56,-48,99,127,-53,-128,,0
1624715054.331198,103,111,-107,23,104,108,127,127,,0
1624715054.353885,105,127,-123,-128,-92,-98,68,-128,,1
1624715054.353885,-104,6,-103,93,18,-107,-44,-49,,1
1624715054.356628,-51,76,127,-26,57,127,56,-128,,2
1624715054.356628,-84,-122,-35,33,127,-54,-26,-128,,2
1624715054.3765812,-73,-128,-31,-128,-100,-14,14,127,,3
1624715054.3765812,58,40,-128,76,53,18,90,2,,3
1624715054.380912,47,63,28,127,-3,-83,-128,-33,,0
1624715054.380912,-50,-43,-45,-128,80,57,-24,51,,0
1624715054.397867,9,-128,69,-27,29,-58,82,127,,1
1624715054.397867,43,-41,14,-116,-128,-20,-27,82,,1
1624715054.404514,-128,-128,70,127,112,26,127,85,,2
1624715054.404514,69,53,-115,-63,127,58,-82,109,,2
1624715054.41969,98,-40,127,97,32,20,113,-6,,3
1624715054.41969,-128,-128,105,-128,-123,-103,-118,127,,3
1624715054.429479,-128,48,-85,-61,-23,1,78,-52,,0
1624715054.429479,127,54,66,10,100,127,-86,40,,0
1624715054.4509928,-25,-128,-20,66,-101,63,-128,-109,,1
1624715054.4509928,37,127,-53,-128,-59,-128,91,127,,1
1624715054.453443,127,-34,-27,83,96,52,-21,76,,2
1624715054.453443,-128,-34,-12,-57,127,127,108,-2,,2
1624715054.47352,122,47,-39,127,45,59,127,111,,3
1624715054.47352,-36,45,-20,-128,-128,-128,-106,-128,,3
1624715054.4760718,-79,-63,52,109,41,122,55,4,,0
1624715054.4760718,6,-32,-24,-19,-93,63,56,-63,,0
1624715054.495768,43,-32,-69,-16,30,-35,69,127,,1
1624715054.495768,-46,51,-38,41,-104,-128,-98,127,,1
1624715054.5093608,-5,-79,-66,42,127,44,-128,-128,,2
1624715054.5093608,-128,10,-41,-29,21,48,-37,-128,,2
1624715054.52603,101,28,-64,-21,-128,-62,121,-18,,3
1624715054.52603,23,9,-16,11,127,127,-82,-128,,3
1624715054.529109,-128,-128,13,127,-78,-128,127,30,,0
1624715054.529109,53,-37,-37,-53,37,11,-88,-128,,0
1624715054.548498,127,-17,-3,-31,38,92,-128,-128,,1
1624715054.548498,87,-20,23,6,-122,-128,-44,127,,1
1624715054.551728,-84,-128,-45,-39,14,102,127,127,,2
1624715054.551728,30,-14,93,41,127,97,127,-50,,2
1624715054.569331,-128,4,-90,-128,-63,-117,-113,-128,,3
1624715054.569331,-68,-2,76,-128,-65,-11,127,-36,,3
1624715054.580051,47,33,41,127,126,-128,-72,-1,,0
1624715054.580051,38,2,127,43,-128,32,58,-84,,0
1624715054.60104,-33,-11,-128,-128,-29,-93,-128,-43,,1
1624715054.60104,-53,74,-19,14,118,106,-128,23,,1
1624715054.603733,65,-37,-83,-68,-66,49,127,127,,2
1624715054.603733,93,127,127,-81,-36,19,74,127,,2
1624715054.624214,-7,-58,-37,-32,4,-128,-128,127,,3
1624715054.624214,38,127,81,127,2,127,127,30,,3
1624715054.627326,-128,-44,-38,-99,-75,-72,16,-128,,0
1624715054.627326,-53,-31,-17,32,-19,-99,-30,-25,,0
1624715054.645196,18,-22,34,29,52,44,-9,-128,,1
1624715054.645196,-44,109,-128,-24,74,73,102,-128,,1
1624715054.646694,7,82,87,-99,-128,-128,34,-24,,2
1624715054.646694,127,15,19,60,68,98,124,127,,2
1624715054.6676009,-128,-89,10,13,-69,-128,-33,-128,,3
1624715054.6676009,94,39,-128,-45,85,124,29,25,,3
1624715054.6774578,72,-20,100,-113,-128,24,127,57,,0
1624715054.6774578,-69,-6,47,-83,18,-128,-82,28,,0
1624715054.6991339,95,15,-16,-9,-111,127,127,-128,,1
1624715054.6991339,-42,-16,-128,-112,57,-121,52,125,,1
1624715054.703382,52,28,-60,77,-76,-22,77,-28,,2
1624715054.703382,-90,-11,-12,-100,9,51,-6,-33,,2
1624715054.721333,127,-70,-30,46,114,109,112,127,,3
1624715054.721333,63,-86,-54,-32,-128,-128,-128,-128,,3
1624715054.72415,0,127,-76,17,64,84,-94,-128,,0
1624715054.72415,59,-48,-62,79,-23,-71,-5,127,,0
1624715054.7424781,-107,-117,-19,-40,-70,-128,72,127,,1
1624715054.7424781,127,104,127,27,16,127,127,42,,1
1624715054.752044,31,127,-64,-102,127,62,6,26,,2
1624715054.752044,-128,-75,-5,-90,-128,-71,-55,18,,2
1624715054.764693,-48,12,-3,102,85,-3,96,-109,,3
1624715054.764693,107,127,-94,127,127,127,127,111,,3
1624715054.773921,-35,9,108,-128,-128,-128,-108,-47,,0
1624715054.773921,-57,-61,74,110,127,121,31,81,,0
1624715054.796612,11,-15,72,-44,-78,127,127,9,,1
1624715054.796612,25,92,7,-5,-54,-33,83,-90,,1
1624715054.7988951,-19,-128,24,82,65,-97,127,-100,,2
1624715054.7988951,85,100,17,-65,-103,-16,-128,-128,,2
1624715054.818789,-128,-39,-24,39,-79,-98,110,-128,,3
1624715054.818789,127,-128,-103,-52,49,40,31,127,,3
1624715054.8216379,-80,-35,54,19,27,-36,96,127,,0
1624715054.8216379,-16,-19,-41,-113,-128,97,-108,-98,,0
1624715054.840954,-128,-6,31,5,38,117,-128,-128,,1
1624715054.840954,19,127,-128,-81,-13,-113,4,61,,1
1624715054.843817,26,-91,-39,104,-9,11,-128,82,,2
1624715054.843817,-128,-46,64,15,102,82,22,21,,2
1624715054.8641431,127,-40,75,26,-77,-128,-9,24,,3
1624715054.8641431,-126,-69,-128,-23,9,7,17,-128,,3
1624715054.8667881,-29,45,72,-106,75,95,-36,69,,0
1624715054.8667881,-43,-5,51,50,116,42,-128,82,,0
1624715054.885002,-43,-1,-36,127,45,-68,127,-72,,1
1624715054.885002,5,10,-114,-66,-39,-27,-51,-128,,1
1624715054.8943832,38,-8,65,24,18,13,122,59,,2
1624715054.8943832,127,127,86,94,127,127,40,127,,2
1624715054.907514,-81,28,-47,-74,44,53,-50,-49,,3
1624715054.907514,113,-27,-69,59,-128,-128,22,-128,,3
1624715054.916791,-128,18,-19,32,-1,-77,-128,-83,,0
1624715054.916791,-79,-48,53,-113,102,127,0,30,,0
1624715054.939502,-54,35,80,127,-3,-80,-38,1,,1
1624715054.939502,-20,31,-67,-29,75,68,-50,-93,,1
1624715054.944459,123,40,65,10,-39,-87,-58,73,,2
1624715054.944459,-128,-30,59,-60,-9,105,127,-67,,2
1624715054.961169,56,-11,-107,-21,55,-128,-38,-47,,3
1624715054.961169,99,-41,127,-70,-96,-126,123,127,,3
1624715054.963723,-95,127,-127,-58,109,13,-59,-70,,0
1624715054.963723,33,-59,40,94,106,99,-75,-22,,0
1624715054.982233,5,28,5,109,-19,-44,-30,93,,1
1624715054.982233,20,-53,35,-2,127,48,15,68,,1
1624715054.9924521,17,-64,-25,6,-107,-120,-99,-37,,2
1624715054.9924521,-66,-89,26,127,127,127,-49,-8,,2
1624715055.0135942,-78,-112,-120,-128,-128,-128,-77,20,,3
1624715055.0135942,-67,-74,92,48,127,125,-5,127,,3
1624715055.016086,87,-79,-82,110,46,-24,127,127,,0
1624715055.016086,-128,18,56,-24,-128,21,-128,-128,,0
1624715055.03625,117,-6,-128,-41,-3,-72,127,127,,1
1624715055.03625,-128,-11,16,29,-28,31,45,-100,,1
1624715055.039166,-77,-5,-28,-63,-47,75,-95,127,,2
1624715055.039166,84,28,-6,-26,39,-104,74,-128,,2
1624715055.0586271,-128,-24,-108,126,90,42,-5,-93,,3
1624715055.0586271,-11,43,1,-117,35,-42,-51,-4,,3
1624715055.061585,-59,-59,127,-68,-128,-10,100,-128,,0
1624715055.061585,3,38,-1,127,37,-25,-45,-128,,0
1624715055.081037,51,-33,71,-82,48,127,29,103,,1
1624715055.081037,-39,59,80,119,-103,-128,41,-128,,1
1624715055.083808,127,-41,-2,-128,-128,-14,127,127,,2
1624715055.083808,18,2,-16,117,127,127,127,-128,,2
1624715055.102116,-115,35,85,14,127,-51,-128,-128,,3
1624715055.102116,75,33,99,86,-89,-128,127,-84,,3
1624715055.111933,102,34,78,67,49,117,-128,-128,,0
1624715055.111933,81,4,-18,-51,64,104,-45,127,,0
1624715055.1251452,-104,-20,18,-128,-128,37,81,-128,,1
1624715055.1251452,7,28,127,121,-6,56,104,-44,,1
1624715055.1345868,-70,2,-21,98,127,-21,-15,35,,2
1624715055.1345868,-37,-44,83,-73,-37,68,-49,-73,,2
1624715055.157038,-119,-39,-4,86,-77,4,-128,127,,3
1624715055.157038,32,32,-37,23,127,38,-106,41,,3
1624715055.15974,-3,19,59,-22,103,120,23,45,,0
1624715055.15974,127,-98,127,92,-96,-128,99,127,,0
1624715055.1787782,-62,25,110,-128,-82,18,-40,-128,,1
1624715055.1787782,-22,-29,67,-17,-37,96,-14,-128,,1
1624715055.1815271,-41,-9,-75,127,11,50,-128,127,,2
1624715055.1815271,-73,-91,-24,87,107,32,67,-128,,2
1624715055.200552,-128,-34,-40,21,87,-112,107,-119,,3
1624715055.200552,62,68,62,-128,-87,37,127,1,,3
1624715055.2099168,33,21,11,103,-54,-128,87,88,,0
1624715055.2099168,88,-62,-49,-73,-25,-19,-128,67,,0
1624715055.222521,7,-100,-59,-30,0,69,105,127,,1
1624715055.222521,51,-47,7,-14,127,127,121,5,,1
1624715055.23249,127,81,-14,15,-83,-128,-128,-128,,2
1624715055.23249,18,7,45,-128,-128,-55,-19,102,,2
1624715055.253747,119,5,-93,59,28,118,12,-14,,3
1624715055.253747,-128,-22,-41,-24,65,-57,-128,-70,,3
1624715055.2566888,127,-17,-128,35,64,-35,43,127,,0
1624715055.2566888,-28,-46,67,-32,-44,12,36,-95,,0
1624715055.2765281,-49,-3,-18,55,127,91,127,-128,,1
1624715055.2765281,-125,-12,52,-57,112,-8,-128,-124,,1
1624715055.2810612,122,8,-82,106,8,-128,-29,81,,2
1624715055.2810612,-128,-104,50,127,112,127,20,-128,,2
1624715055.2985148,88,36,-128,-9,1,-78,49,127,,3
1624715055.2985148,-17,49,127,-128,87,78,-128,-128,,3
1624715055.30146,-30,-5,12,47,-95,-26,-127,-31,,0
1624715055.30146,127,66,62,68,114,-49,-128,-50,,0
1624715055.3210292,63,3,-3,-90,-72,21,127,-3,,1
1624715055.3210292,17,13,89,-128,-66,-81,33,95,,1
1624715055.324063,-32,20,-43,18,-17,6,-67,22,,2
1624715055.324063,-25,21,-120,-42,-128,42,-121,-128,,2
1624715055.3423831,-51,-83,-7,-66,105,49,-88,127,,3
1624715055.3423831,21,23,-128,-63,-86,-17,-69,-16,,3
1624715055.352538,-52,-12,127,-7,119,6,36,-115,,0
1624715055.352538,-37,20,-63,97,40,67,-57,-128,,0
1624715055.3649678,-24,-29,58,22,30,-128,-84,-21,,1
1624715055.3649678,16,7,5,-95,-128,53,-74,97,,1
1624715055.374998,127,1,111,-6,-97,-42,127,127,,2
1624715055.374998,-42,-4,-23,91,109,25,-128,-128,,2
1624715055.3966458,99,46,-19,127,127,127,127,101,,3
1624715055.3966458,51,-82,14,-50,53,-78,-70,64,,3
1624715055.400848,-128,-23,-10,-4,-128,-35,-69,84,,0
1624715055.400848,127,120,127,94,55,33,51,-128,,0
1624715055.418866,-41,-28,-30,-35,-26,-68,-16,127,,1
1624715055.418866,127,46,83,13,37,81,127,80,,1
1624715055.4217632,45,-76,-34,-56,-42,31,50,127,,2
1624715055.4217632,11,-9,90,-63,-42,88,-128,-18,,2
1624715055.441473,-117,-19,-108,-86,-58,-69,38,127,,3
1624715055.441473,127,2,24,90,27,49,-128,-128,,3
1624715055.444389,-2,10,39,-128,-128,-92,77,105,,0
1624715055.444389,127,88,-13,127,127,70,127,127,,0
1624715055.462002,50,61,-125,-52,-128,-47,-23,-29,,1
1624715055.462002,-10,-5,37,-126,-113,-40,-40,13,,1
1624715055.472456,-45,-68,-23,-60,9,105,-66,33,,2
1624715055.472456,0,-29,-35,127,47,-44,81,-128,,2
1624715055.485003,-5,39,30,-128,-71,49,59,-80,,3
1624715055.485003,39,4,116,51,-35,117,-128,127,,3
1624715055.494855,-1,-60,-31,-71,-114,-128,118,10,,0
1624715055.494855,41,22,-18,61,127,127,39,-15,,0
1624715055.5165482,50,-36,-128,3,-95,-121,-128,58,,1
1624715055.5165482,10,-42,-6,-113,-88,40,-128,-128,,1
1624715055.520714,13,20,-60,57,45,127,-21,127,,2
1624715055.520714,-24,6,-19,-128,-46,48,-29,123,,2
1624715055.538604,-35,36,-13,60,-73,-124,34,121,,3
1624715055.538604,-20,57,-3,-30,-18,-11,-81,110,,3
1624715055.541415,-9,-71,-3,-99,-128,55,-77,-42,,0
1624715055.541415,51,-45,-48,-76,-14,-128,-128,-128,,0
1624715055.559715,13,97,71,125,127,-54,108,-49,,1
1624715055.559715,21,-33,-31,-90,127,127,57,127,,1
1624715055.570167,-33,-20,-40,36,-128,-101,-13,28,,2
1624715055.570167,-76,-66,5,-56,99,6,69,-128,,2
1624715055.5912309,-28,60,-7,-5,-95,127,-53,-128,,3
1624715055.5912309,-65,-13,-31,107,-64,-128,-58,-128,,3
1624715055.594204,-95,-82,-102,-84,35,-85,-16,127,,0
1624715055.594204,127,-1,127,60,100,13,-126,127,,0
1624715055.613104,-21,-21,-119,-88,-20,-12,109,68,,1
1624715055.613104,-12,53,39,1,113,98,-128,109,,1
1624715055.615124,-92,-77,72,-59,-128,-64,78,127,,2
1624715055.615124,23,10,-55,-79,-26,-128,-128,-128,,2
1624715055.635885,-80,74,9,127,14,45,110,-15,,3
1624715055.635885,0,-34,127,-48,114,72,-128,-128,,3
1624715055.644171,76,41,94,-66,-128,-128,122,127,,0
1624715055.644171,-128,-65,-85,65,74,-97,-89,-104,,0
1624715055.657307,15,-29,-16,-32,17,-33,116,-32,,1
1624715055.657307,-6,89,29,65,105,127,53,-39,,1
1624715055.6677172,-45,-62,-14,-114,-128,-29,41,-53,,2
1624715055.6677172,26,-3,22,-76,-128,-37,-128,-31,,2
1624715055.6886778,-80,76,38,41,84,127,127,96,,3
1624715055.6886778,-45,-33,115,-64,29,-128,-73,-128,,3
1624715055.692134,60,4,-49,34,-128,-128,4,127,,0
1624715055.692134,60,40,85,26,-16,9,127,127,,0
1624715055.711329,-95,-35,-118,27,92,-52,-81,-128,,1
1624715055.711329,26,2,60,-128,-53,26,94,55,,1
1624715055.714781,-105,29,16,35,57,99,127,23,,2
1624715055.714781,-78,-1,-99,-93,-102,-128,-128,-128,,2
1624715055.734097,127,-38,-128,57,9,95,-81,23,,3
1624715055.734097,122,17,-55,7,-128,-14,127,88,,3
1624715055.737269,-48,11,-21,-40,74,-27,-19,127,,0
1624715055.737269,-19,-102,-65,-124,-16,119,91,-24,,0
1624715055.7564878,40,-3,-67,29,-111,-128,6,33,,1
1624715055.7564878,11,55,107,88,127,127,21,-80,,1
1624715055.7592478,-33,-27,-38,-128,-128,20,-30,-32,,2
1624715055.7592478,64,-24,-128,127,127,-128,97,127,,2
1624715055.7770162,-5,11,-89,75,111,127,40,-70,,3
1624715055.7770162,-128,-23,23,-89,-128,-17,115,-128,,3
1624715055.787204,113,0,-101,74,-33,-128,-102,5,,0
1624715055.787204,127,-21,-73,-3,-45,-10,127,127,,0
1624715055.7991161,-128,-3,45,20,61,127,-47,89,,1
1624715055.7991161,-45,-9,-4,-114,-93,-128,-128,-72,,1
1624715055.809789,94,16,-110,3,36,127,-58,81,,2
1624715055.809789,40,43,76,-48,52,113,3,73,,2
1624715055.831795,-112,-6,18,39,-6,-50,127,-47,,3
1624715055.831795,127,121,11,-45,112,20,-128,106,,3
1624715055.8342679,-128,-40,70,114,-16,-16,35,-42,,0
1624715055.8342679,27,47,-128,-128,-128,-128,-64,57,,0
1624715055.853514,-20,-9,66,127,79,127,79,-23,,1
1624715055.853514,-27,-21,-58,-79,-128,-94,-128,-49,,1
1624715055.8563159,56,3,-128,-128,-128,-37,61,79,,2
1624715055.8563159,21,-1,-116,20,98,127,40,-104,,2
1624715055.876596,-11,54,95,17,31,-53,2,-104,,3
1624715055.876596,17,53,-100,8,4,53,122,102,,3
1624715055.881491,127,3,5,-128,-17,-73,127,-44,,0
1624715055.881491,-36,83,20,28,-80,-73,97,-70,,0
1624715055.89851,-128,-42,-33,118,54,127,92,51,,1
1624715055.89851,102,2,-76,-128,-128,-128,-128,-92,,1
1624715055.9006321,-93,-128,-12,-37,-99,-48,-11,127,,2
1624715055.9006321,37,-14,-62,93,46,66,-10,-69,,2
1624715055.921025,115,69,87,99,122,127,86,127,,3
1624715055.921025,-62,50,11,-59,-22,-128,-88,-128,,3
1624715055.924088,12,-2,-128,-58,-12,-128,-128,127,,0
1624715055.924088,94,-56,69,-2,-88,127,-30,77,,0
1624715055.942131,-128,-14,27,56,127,-128,127,-63,,1
1624715055.942131,7,50,127,121,-73,47,-74,-26,,1
1624715055.952033,60,-14,47,-5,68,59,-34,39,,2
1624715055.952033,-5,-15,-122,91,66,3,-128,120,,2
1624715055.96468,-26,18,98,-46,-119,-128,91,-104,,3
1624715055.96468,121,40,-33,11,46,127,127,127,,3
1624715055.974561,23,10,76,-12,88,-65,-128,-128,,0
1624715055.974561,-128,46,15,-24,-115,-128,48,69,,0
1624715055.996434,64,28,-56,-17,-5,66,127,127,,1
1624715055.996434,-128,-111,-31,75,109,49,-128,80,,1
1624715055.999003,127,32,-54,-89,-31,114,14,72,,2
1624715055.999003,27,-15,6,-60,-48,-82,-19,48,,2
1624715056.0189261,-75,9,81,107,-124,-118,109,-55,,3
1624715056.0189261,-58,-15,27,-35,127,127,-3,8,,3
1624715056.0220969,127,25,-61,127,127,91,81,122,,0
1624715056.0220969,4,-41,-32,-128,-128,-74,-73,-77,,0
1624715056.041026,-39,37,-79,127,127,65,47,17,,1
1624715056.041026,14,-17,123,-128,-110,-41,-119,-5,,1
1624715056.0442061,-35,-29,-2,45,127,71,-128,77,,2
1624715056.0442061,-39,-27,-56,-2,22,-51,-44,-128,,2
1624715056.0628622,19,-6,-46,-49,-128,45,47,127,,3
1624715056.0628622,-28,-12,-39,-14,38,-91,-73,118,,3
1624715056.069653,20,11,-71,24,-1,127,122,109,,0
1624715056.069653,-89,-41,-112,-31,17,73,-110,37,,0
1624715056.084625,127,-16,-128,9,-24,-128,-50,-27,,1
1624715056.084625,119,38,-4,-21,32,-30,-75,-2,,1
1624715056.094599,20,5,115,28,-14,32,9,53,,2
1624715056.094599,-71,39,24,-39,-21,13,127,79,,2
1624715056.116534,79,-23,-107,-33,124,53,34,23,,3
1624715056.116534,-28,-31,62,93,-54,23,-36,0,,3
1624715056.1207428,-66,7,-42,54,18,-128,-17,-74,,0
1624715056.1207428,-25,-122,-35,-86,-86,-84,-40,127,,0
1624715056.138861,-43,4,-128,7,39,54,37,-81,,1
1624715056.138861,-50,32,127,48,127,-62,80,-59,,1
1624715056.14167,60,-7,-9,127,57,70,-1,124,,2
1624715056.14167,2,-39,-40,-128,-128,-12,-48,21,,2
1624715056.1595001,-14,-6,-9,104,4,79,127,127,,3
1624715056.1595001,-52,10,-5,11,99,-30,-29,-128,,3
1624715056.1699798,53,67,-11,-4,-122,-128,88,78,,0
1624715056.1699798,50,35,34,42,62,45,127,100,,0
1624715056.1825101,-14,-45,-40,-75,32,37,14,86,,1
1624715056.1825101,100,3,-28,66,-31,-54,-82,13,,1
1624715056.19195,13,-40,-113,-82,41,127,7,-128,,2
1624715056.19195,17,18,-33,-47,-128,-128,-9,-128,,2
1624715056.213696,25,9,11,123,122,-6,-128,-128,,3
1624715056.213696,-20,76,56,-122,-128,-21,-17,97,,3
1624715056.21663,-62,-62,-128,-66,7,25,-11,-27,,0
1624715056.21663,44,-25,28,127,-91,89,68,-21,,0
1624715056.2364979,-22,36,-115,-11,-86,-76,-12,-128,,1
1624715056.2364979,-33,46,75,98,127,127,21,-109,,1
1624715056.239651,56,-92,-22,-128,-128,-26,58,127,,2
1624715056.239651,-39,63,-45,21,-39,-128,-58,12,,2
1624715056.2595258,19,-10,-65,68,30,-128,127,44,,3
1624715056.2595258,-73,-43,-65,-34,50,120,28,77,,3
1624715056.263843,-19,26,-24,69,44,16,6,-128,,0
1624715056.263843,127,-9,90,5,49,-45,65,127,,0
1624715056.2809641,-128,-3,-43,18,-39,127,20,-128,,1
1624715056.2809641,77,27,127,-1,-53,-128,30,127,,1
1624715056.283803,-54,-79,54,88,127,127,55,24,,2
1624715056.283803,-37,-74,-128,8,-128,-128,-48,-128,,2
1624715056.302475,16,57,29,127,45,-89,58,57,,3
1624715056.302475,2,35,83,93,127,127,-67,127,,3
1624715056.3125582,72,84,79,52,-11,-128,-58,12,,0
1624715056.3125582,-6,-45,-12,91,16,-68,127,110,,0
1624715056.324903,22,-7,-115,10,-20,95,-21,25,,1
1624715056.324903,-9,16,-15,83,91,-105,-3,32,,1
1624715056.3341188,-38,-58,-57,24,-35,84,13,40,,2
1624715056.3341188,-4,-46,17,-100,41,-59,65,30,,2
1624715056.34751,-26,120,14,-74,-128,127,127,127,,3
1624715056.34751,61,83,-31,27,127,-70,-128,-128,,3
1624715056.357538,-98,-71,101,127,-52,-80,127,127,,0
1624715056.357538,127,-15,-95,13,30,98,89,127,,0
1624715056.378871,-121,-20,-115,-41,72,-128,-128,-125,,1
1624715056.378871,-4,-37,-30,-31,-35,109,127,118,,1
1624715056.3818119,-104,-30,-73,-25,-63,-2,16,-62,,2
1624715056.3818119,-1,-17,-41,-27,39,17,23,-10,,2
1624715056.401082,44,63,-35,-123,127,127,127,9,,3
1624715056.401082,-25,-38,110,22,-128,-128,-19,-41,,3
1624715056.404342,24,-79,1,-32,51,28,-55,14,,0
1624715056.404342,-108,21,80,127,107,122,34,-88,,0
1624715056.42349,23,109,0,60,82,95,61,-86,,1
1624715056.42349,22,-94,-22,-128,-128,-128,38,127,,1
1624715056.426476,9,73,-96,98,-108,89,-128,-82,,2
1624715056.426476,-17,-30,-32,-111,-11,-17,65,-10,,2
1624715056.446153,-66,13,-114,42,-128,-128,-128,-38,,3
1624715056.446153,-60,-53,34,28,-37,-53,14,-128,,3
1624715056.449002,33,-34,-8,-35,38,-104,16,-54,,0
1624715056.449002,-128,-72,19,84,50,40,-128,-128,,0
1624715056.468976,113,-58,-82,-128,-84,-19,127,127,,1
1624715056.468976,23,-87,3,127,39,127,127,127,,1
1624715056.471775,-101,75,-36,5,-21,-68,-128,-128,,2
1624715056.471775,-32,-26,-25,18,82,-7,-22,1,,2
1624715056.490562,118,71,1,-47,-84,-128,127,56,,3
1624715056.490562,-81,-28,29,15,108,127,85,-4,,3
1624715056.4992251,95,73,-55,-52,-116,-17,-85,5,,0
1624715056.4992251,-1,59,-6,26,127,9,-128,-24,,0
1624715056.521337,9,26,127,38,53,17,62,-10,,1
1624715056.521337,18,69,95,52,50,-54,56,-21,,1
1624715056.524331,5,15,-20,118,29,127,-128,38,,2
1624715056.524331,69,23,127,-28,107,-8,119,2,,2
1624715056.543741,-19,89,-46,27,127,126,20,88,,3
1624715056.543741,-128,-2,33,-79,-107,-128,-128,-128,,3
1624715056.546465,114,-25,57,49,-29,-54,-128,-31,,0
1624715056.546465,105,113,-43,87,127,127,112,127,,0
1624715056.565946,-41,13,42,-56,-84,-128,-12,46,,1
1624715056.565946,80,85,61,127,127,127,127,127,,1
1624715056.568734,-108,-33,33,109,-8,-128,97,127,,2
1624715056.568734,-27,52,-72,-37,4,127,15,105,,2
1624715056.588589,-26,-2,-57,-74,-117,-128,55,-128,,3
1624715056.588589,127,127,86,47,0,127,0,45,,3
1624715056.5914261,-39,-18,-18,-42,-81,-128,-34,-72,,0
1624715056.5914261,45,-7,-48,15,127,119,-93,122,,0
1624715056.611464,83,104,-48,97,64,34,-128,72,,1
1624715056.611464,120,127,127,127,127,53,0,127,,1
1624715056.6145012,3,41,26,-53,-96,-12,14,12,,2
1624715056.6145012,-61,-75,127,-128,-128,-128,-35,-76,,2
1624715056.641377,77,2,81,127,25,127,7,41,,3
1624715056.641377,127,90,11,127,39,0,0,74,,3
1624715056.644319,2,58,5,48,-25,-128,-79,127,,0
1624715056.644319,66,-29,42,-23,-21,74,-32,17,,0
1624715056.6627579,-23,22,19,-14,-27,80,127,48,,1
1624715056.6627579,85,60,71,127,127,101,127,127,,1
1624715056.664408,7,-12,-8,-22,-75,21,-128,-101,,2
1624715056.664408,-56,92,55,127,127,75,127,-83,,2
1624715056.686003,-99,27,-84,-105,-128,-47,-74,-128,,3
1624715056.686003,81,91,110,79,84,102,127,103,,3
1624715056.6887949,-62,-55,127,10,39,63,-15,-43,,0
1624715056.6887949,-77,-73,-76,-10,19,14,127,-10,,0
1624715056.708916,84,32,-42,4,100,-13,-107,-96,,1
1624715056.708916,127,127,127,127,127,127,127,127,,1
1624715056.7115872,42,37,-29,-50,96,123,30,13,,2
1624715056.7115872,107,53,96,-24,53,92,10,127,,2
1624715056.731542,-126,-105,-68,-52,-58,7,127,70,,3
1624715056.731542,0,127,118,93,101,106,97,97,,3
1624715056.734561,8,45,-43,-14,-94,-128,5,-74,,0
1624715056.734561,127,44,51,30,-71,-93,-5,123,,0
1624715056.753993,-17,13,-113,10,89,85,127,-86,,1
1624715056.753993,127,127,127,127,0,0,88,115,,1
1624715056.7570581,-128,-16,-52,-96,109,-128,-128,-128,,2
1624715056.7570581,12,23,-23,127,77,108,-54,127,,2
1624715056.775944,2,1,-27,-83,-92,32,-125,-128,,3
1624715056.775944,127,127,127,127,127,127,67,127,,3
1624715056.7847989,-13,-2,47,-63,40,-20,-7,51,,0
1624715056.7847989,-16,-120,-100,-26,-128,-41,-51,-76,,0
1624715056.79759,-30,53,-33,-105,-23,-128,83,-22,,1
1624715056.79759,127,127,127,127,127,127,127,127,,1
1624715056.806444,-29,-15,28,4,-23,-79,127,-38,,2
1624715056.806444,-72,-19,-128,31,-20,77,-128,127,,2
1624715056.829049,83,57,-80,-4,-25,-128,-128,75,,3
1624715056.829049,93,119,0,105,118,60,9,31,,3
1624715056.831984,-50,85,125,49,-49,-90,45,91,,0
1624715056.831984,37,34,-18,-35,0,32,68,55,,0
1624715056.8515651,-113,-94,-16,-91,-50,54,23,-30,,1
1624715056.8515651,125,127,127,70,90,105,127,127,,1
1624715056.854507,2,22,127,-56,113,73,-4,81,,2
1624715056.854507,20,27,-18,7,59,-4,-36,-5,,2
1624715056.8743129,35,5,-105,-83,13,113,-47,9,,3
1624715056.8743129,127,125,127,45,67,127,68,127,,3
1624715056.876958,-41,-10,-86,-7,-43,28,-128,-51,,0
1624715056.876958,-44,-9,11,2,-117,-47,127,9,,0
1624715056.896338,96,-67,-117,3,74,84,-128,-128,,1
1624715056.896338,127,127,127,43,109,127,123,127,,1
1624715056.899523,-128,-88,127,-9,42,112,127,-26,,2
1624715056.899523,92,-79,-31,33,-106,-8,-123,96,,2
1624715056.916608,36,102,-47,-21,127,37,60,-57,,3
1624715056.916608,44,124,91,50,68,92,127,0,,3
1624715056.92732,-28,-51,-38,49,127,64,-94,-105,,0
1624715056.92732,75,127,97,0,21,127,-39,-13,,0
1624715056.939318,-30,-29,-95,28,23,-128,42,55,,1
1624715056.939318,98,127,127,28,24,90,127,88,,1
1624715056.949852,-4,-72,-128,8,116,127,-94,26,,2
1624715056.949852,36,-20,28,-75,-76,68,78,76,,2
1624715056.9715562,38,62,52,-29,4,26,38,-67,,3
1624715056.9715562,127,96,127,122,127,125,32,81,,3
1624715056.974661,-99,0,-46,-128,-124,-81,42,-128,,0
1624715056.974661,-55,-59,-43,-58,55,127,-127,125,,0
1624715056.9942,-128,-21,-18,37,27,-87,-128,-128,,1
1624715056.9942,107,122,122,127,127,13,18,69,,1
1624715056.997251,-13,71,66,-79,-91,67,-12,-86,,2
1624715056.997251,49,8,-62,9,53,-128,34,91,,2
1624715057.015724,-30,-43,-29,127,-83,127,-52,79,,3
1624715057.015724,127,127,127,127,127,127,127,127,,3
1624715057.018178,48,36,-76,-75,46,42,-128,-8,,0
1624715057.018178,-44,0,123,127,118,127,84,10,,0
1624715057.037429,-39,30,-77,-128,-128,-128,-100,-48,,1
1624715057.037429,127,110,127,51,115,127,127,127,,1
1624715057.038982,-64,-67,-79,-13,18,-59,49,-128,,2
1624715057.038982,119,-3,-30,-82,-27,-71,35,86,,2
1624715057.060095,-1,74,78,127,127,113,60,-27,,3
1624715057.060095,105,127,42,127,127,127,127,0,,3
1624715057.0616698,127,52,-31,35,107,127,127,127,,0
1624715057.0616698,90,11,-10,44,-4,-41,-71,71,,0
1624715057.082054,62,18,120,-128,-74,-46,127,127,,1
1624715057.082054,127,127,34,64,88,32,127,117,,1
1624715057.0918899,-51,55,-26,127,127,100,-49,-34,,2
1624715057.0918899,77,-32,-23,-127,36,36,127,127,,2
1624715057.104511,-73,11,57,-8,-34,-13,-57,-128,,3
1624715057.104511,115,127,127,127,127,110,127,0,,3
1624715057.114634,10,52,50,47,-128,-128,127,24,,0
1624715057.114634,-111,-5,88,-69,112,127,-77,-9,,0
1624715057.135932,127,56,-75,117,-6,37,127,-7,,1
1624715057.135932,110,82,127,127,127,127,118,0,,1
1624715057.139037,7,49,97,-20,46,123,-128,-14,,2
1624715057.139037,89,9,6,114,-62,-128,100,3,,2
1624715057.158842,-69,-21,-40,-42,-36,-28,-29,-60,,3
1624715057.158842,127,127,127,127,127,127,71,112,,3
1624715057.162258,-9,-96,2,127,127,127,-107,-128,,0
1624715057.162258,17,3,-36,1,52,-82,-23,-49,,0
1624715057.1799738,8,25,-6,48,127,-51,-60,78,,1
1624715057.1799738,110,118,110,99,61,99,46,4,,1
1624715057.1815438,69,34,-29,-20,-76,3,-18,44,,2
1624715057.1815438,-13,-8,-22,-62,3,88,6,72,,2
1624715057.2035708,38,13,-128,43,-43,-128,-128,20,,3
1624715057.2035708,61,72,127,127,127,127,127,127,,3
1624715057.2065122,8,-74,1,127,107,92,-5,127,,0
1624715057.2065122,-6,32,63,-13,49,61,40,-48,,0
1624715057.2252128,-23,-118,-75,-25,39,73,94,79,,1
1624715057.2252128,76,88,127,127,92,0,5,89,,1
1624715057.234995,125,27,-128,-28,59,54,-63,-99,,2
1624715057.234995,-98,-31,-14,-24,-111,-128,116,31,,2
1624715057.247267,15,-32,7,12,127,127,-128,-128,,3
1624715057.247267,127,108,110,17,83,97,99,127,,3
1624715057.2580538,-56,25,-103,-34,-62,-10,1,-103,,0
1624715057.2580538,43,2,-84,9,92,127,-97,97,,0
1624715057.2788951,-37,-29,23,-47,-115,-128,-39,55,,1
1624715057.2788951,127,127,0,114,0,0,18,127,,1
1624715057.281918,-73,-60,-15,-128,-86,-128,-19,-31,,2
1624715057.281918,41,120,127,127,92,7,36,-42,,2
1624715057.301138,-98,-2,66,-24,62,97,51,85,,3
1624715057.301138,127,127,74,127,127,103,127,127,,3
1624715057.3042848,62,51,26,127,73,93,34,127,,0
1624715057.3042848,82,18,95,59,43,60,2,77,,0
1624715057.3239229,6,-25,-99,30,-16,-127,-128,83,,1
1624715057.3239229,90,127,127,127,127,0,127,127,,1
1624715057.326879,-128,-76,40,-19,-110,127,74,23,,2
1624715057.326879,127,-2,-35,26,28,-128,127,-19,,2
1624715057.346028,-25,47,64,1,25,127,-63,-21,,3
1624715057.346028,103,98,127,21,100,0,127,115,,3
1624715057.348929,-92,-74,-128,-35,70,-66,-108,51,,0
1624715057.348929,38,-25,28,-69,-72,37,127,-42,,0
1624715057.368282,-49,-26,-28,-55,-111,-128,-128,48,,1
1624715057.368282,127,127,104,127,0,96,118,127,,1
1624715057.3710752,-32,6,23,-63,42,53,-59,-128,,2
1624715057.3710752,65,13,-44,47,-29,-5,48,84,,2
1624715057.390347,49,97,127,123,56,66,-59,49,,3
1624715057.390347,17,111,119,127,127,127,127,127,,3
1624715057.399304,-7,-5,-61,-5,-22,18,-128,127,,0
1624715057.399304,78,-9,-55,-10,127,-53,-22,-87,,0
1624715057.421219,-15,-37,-41,1,-128,8,-80,18,,1
1624715057.421219,127,56,0,11,113,41,110,127,,1
1624715057.423938,34,32,86,16,-128,-83,-9,33,,2
1624715057.423938,-29,4,2,11,127,127,-128,-15,,2
1624715057.443787,21,4,26,-128,-126,-128,9,-32,,3
1624715057.443787,116,127,94,56,117,74,0,35,,3
1624715057.4465091,32,-59,31,127,-33,62,-3,-47,,0
1624715057.4465091,-46,6,-60,-128,-87,-48,-69,-128,,0
1624715057.46589,29,38,8,127,97,-31,2,127,,1
1624715057.46589,44,127,59,111,78,0,24,0,,1
1624715057.468759,-118,-3,-60,-7,-111,-26,-37,127,,2
1624715057.468759,34,30,16,-43,8,-17,127,-81,,2
1624715057.488575,79,-23,-28,67,-83,-128,-59,-18,,3
1624715057.488575,127,78,127,63,74,0,127,127,,3
1624715057.491337,-8,-26,-37,46,127,-25,-118,-96,,0
1624715057.491337,23,44,127,-58,-113,127,86,9,,0
1624715057.510337,-1,22,53,-21,-31,-95,-29,-27,,1
1624715057.510337,75,83,127,127,0,0,102,123,,1
1624715057.519317,-39,1,-40,-128,53,-34,-26,-11,,2
1624715057.519317,105,-26,25,1,127,85,83,126,,2
1624715057.5412412,-19,2,-128,40,-117,37,53,127,,3
1624715057.5412412,91,127,127,15,63,127,127,108,,3
1624715057.543968,-90,-25,14,-54,87,127,71,-128,,0
1624715057.543968,35,-11,-5,-47,-7,-128,69,43,,0
1624715057.563767,-8,2,-118,48,-23,-20,-97,127,,1
1624715057.563767,52,88,23,100,127,127,94,127,,1
1624715057.566685,0,-16,5,-82,-128,-128,52,127,,2
1624715057.566685,0,14,-51,33,8,91,127,-34,,2
1624715057.585858,-34,-14,-71,-11,42,127,-41,22,,3
1624715057.585858,127,127,0,111,97,127,127,127,,3
1624715057.588615,-19,-5,76,127,116,10,-17,-128,,0
1624715057.588615,23,88,-37,-128,-128,43,1,29,,0
1624715057.608215,-41,24,12,83,-66,-90,-91,-32,,1
1624715057.608215,20,106,127,127,127,127,99,35,,1
1624715057.610521,90,87,127,7,-6,-89,-37,1,,2
1624715057.610521,-48,10,16,68,94,-83,96,-128,,2
1624715057.630002,-18,15,-22,57,-22,127,-98,28,,3
1624715057.630002,0,102,84,127,102,85,0,0,,3
1624715057.631561,21,-10,-75,-119,4,86,36,127,,0
1624715057.631561,-18,-46,108,116,127,31,-10,-128,,0
1624715057.652031,-74,-8,60,-14,-128,-118,-110,83,,1
1624715057.652031,55,98,127,93,69,93,127,0,,1
1624715057.66048,57,23,121,13,-5,17,-9,34,,2
1624715057.66048,-20,-34,21,7,-27,-128,127,18,,2
1624715057.673982,-3,-42,-61,-128,50,45,127,43,,3
1624715057.673982,14,97,81,107,127,106,0,0,,3
1624715057.683649,123,55,112,-32,64,96,127,127,,0
1624715057.683649,-15,3,23,-118,-66,50,-128,-128,,0
1624715057.705939,-98,-12,-98,95,-35,-64,37,-128,,1
1624715057.705939,101,117,121,97,41,127,127,127,,1
1624715057.708422,24,14,25,-125,-128,-128,-6,-1,,2
1624715057.708422,-70,-35,70,127,127,127,53,54,,2
1624715057.72851,20,59,80,-128,-128,-128,-128,10,,3
1624715057.72851,127,127,117,127,6,47,0,127,,3
1624715057.731305,-31,-2,-2,-38,-3,43,3,101,,0
1624715057.731305,95,29,-22,-19,-128,-128,127,22,,0
1624715057.7518132,-68,-37,22,-115,-55,-128,-73,-37,,1
1624715057.7518132,127,127,127,103,127,127,0,127,,1
1624715057.754665,-68,-6,-44,-8,-40,127,-62,17,,2
1624715057.754665,28,74,59,-74,-128,-128,-30,127,,2
1624715057.774186,0,-4,-67,127,37,127,-33,-128,,3
1624715057.774186,127,127,127,127,127,98,127,109,,3
1624715057.777271,36,-4,11,20,127,127,-92,77,,0
1624715057.777271,56,-20,-56,30,-128,-128,-11,50,,0
1624715057.7953842,8,25,81,-117,-13,127,75,-12,,1
1624715057.7953842,127,127,110,127,127,127,123,127,,1
1624715057.803249,-72,-31,-16,27,59,-9,-128,-58,,2
1624715057.803249,23,-50,-58,2,-62,-73,-128,52,,2
1624715057.8175738,8,26,127,127,127,53,24,-54,,3
1624715057.8175738,127,96,52,127,127,127,18,105,,3
1624715057.827111,-17,26,6,-47,31,127,14,-77,,0
1624715057.827111,38,-1,12,23,52,-102,-1,49,,0
1624715057.848926,26,-8,103,-13,-48,127,-83,127,,1
1624715057.848926,127,127,40,112,127,62,127,127,,1
1624715057.8521779,-4,81,-5,-90,100,127,9,86,,2
1624715057.8521779,-48,-22,-57,114,-85,-128,55,-128,,2
1624715057.871082,15,59,115,23,-31,127,-103,-54,,3
1624715057.871082,104,95,91,75,109,56,127,127,,3
1624715057.8740249,-37,27,127,127,127,65,20,86,,0
1624715057.8740249,-52,1,-102,-39,-128,43,46,75,,0
1624715057.8946218,41,-27,127,-128,-29,-128,-41,40,,1
1624715057.8946218,105,92,34,0,0,0,127,19,,1
1624715057.897632,118,97,-31,-114,-128,-128,75,-73,,2
1624715057.897632,-128,-128,14,-48,102,127,116,-75,,2
1624715057.9163709,54,-53,32,-82,51,122,-54,-128,,3
1624715057.9163709,127,127,0,114,0,104,127,0,,3
1624715057.918821,60,-56,-5,33,-94,52,47,11,,0
1624715057.918821,41,-72,-128,-117,-15,-87,-18,127,,0
1624715057.9389582,-83,-30,127,106,-20,14,-61,-25,,1
1624715057.9389582,115,59,127,127,127,127,3,0,,1
1624715057.941896,-82,-34,-4,124,57,-28,127,15,,2
1624715057.941896,83,-24,127,105,127,127,-30,31,,2
1624715057.960329,-18,-53,-128,-77,-128,-113,127,73,,3
1624715057.960329,0,5,113,127,0,35,78,0,,3
1624715057.9674702,18,-23,101,19,28,-103,-90,-15,,0
1624715057.9674702,0,-7,-97,110,-79,101,-57,32,,0
1624715057.981768,33,-1,15,-17,78,-81,35,127,,1
1624715057.981768,114,118,127,127,127,127,127,127,,1
1624715057.992337,54,67,-4,15,127,-128,21,38,,2
1624715057.992337,33,-27,-128,-8,-128,-22,-119,-128,,2
1624715058.0042539,53,-3,127,-55,31,14,75,26,,3
1624715058.0042539,0,122,127,127,127,127,127,0,,3
1624715058.014215,44,15,-33,-107,66,127,37,127,,0
1624715058.014215,-41,-22,-94,-40,-128,-47,-128,-128,,0
1624715058.0369148,18,34,-81,72,-98,-128,24,107,,1
1624715058.0369148,103,97,127,127,127,127,102,127,,1
1624715058.041207,127,11,3,75,35,-21,-99,2,,2
1624715058.041207,-8,20,-21,34,37,127,-57,35,,2
1624715058.058858,88,37,71,64,93,3,74,109,,3
1624715058.058858,80,124,127,61,127,127,127,127,,3
1624715058.062283,23,13,-62,-40,-128,-87,-67,21,,0
1624715058.062283,-12,18,-74,18,-66,-123,-36,127,,0
1624715058.0814762,-76,-40,-105,-28,55,70,-34,43,,1
1624715058.0814762,72,127,65,0,127,127,123,127,,1
1624715058.084136,127,49,-89,38,-52,-15,42,17,,2
1624715058.084136,4,-4,127,-9,42,12,-37,-37,,2
1624715058.103627,-12,2,-63,4,-126,-3,127,127,,3
1624715058.103627,127,115,29,26,122,127,127,127,,3
1624715058.1066072,8,18,-32,-93,-119,-115,-25,0,,0
1624715058.1066072,25,-12,-128,127,127,127,127,-23,,0
1624715058.124992,-58,-1,127,70,114,127,93,53,,1
1624715058.124992,89,100,69,0,52,117,48,118,,1
1624715058.1349618,101,35,-86,-85,-128,63,79,30,,2
1624715058.1349618,32,-59,-24,-84,-107,-100,60,71,,2
1624715058.147226,55,69,-48,127,51,51,85,38,,3
1624715058.147226,118,127,81,37,79,86,20,101,,3
1624715058.1601532,60,-22,-41,-45,-63,-94,-106,114,,0
1624715058.1601532,20,-18,54,-68,19,127,62,14,,0
1624715058.178178,-9,-55,8,70,-49,-128,-128,103,,1
1624715058.178178,92,69,23,127,96,127,18,111,,1
1624715058.181372,-55,-8,-66,1,-128,-60,26,-16,,2
1624715058.181372,-114,-31,-47,-21,114,-22,-128,-128,,2
1624715058.2012239,117,43,-15,25,-54,-45,-75,66,,3
1624715058.2012239,127,127,127,127,127,127,127,127,,3
1624715058.20397,20,-1,72,-15,-29,127,-59,30,,0
1624715058.20397,-34,-3,-30,38,11,-58,124,115,,0
1624715058.2223701,122,61,29,-10,-124,112,60,-32,,1
1624715058.2223701,127,119,89,0,104,119,127,127,,1
1624715058.2322829,-98,-10,-59,-83,68,-84,-128,67,,2
1624715058.2322829,19,-8,-128,99,-128,-25,127,95,,2
1624715058.2448971,-42,-23,-128,-128,-4,9,-1,28,,3
1624715058.2448971,113,110,79,67,127,127,74,115,,3
1624715058.255031,-6,-53,-7,55,110,-128,127,-30,,0
1624715058.255031,23,65,67,-25,57,127,-128,72,,0
1624715058.277363,-12,-18,22,49,-128,-128,-128,-30,,1
1624715058.277363,127,125,54,127,127,127,114,127,,1
1624715058.2817202,127,90,83,-44,15,-21,-51,127,,2
1624715058.2817202,-27,-50,-22,-13,37,-74,61,-16,,2
1624715058.298934,55,21,-46,-35,-128,-15,-45,86,,3
1624715058.298934,125,127,99,127,127,127,126,127,,3
1624715058.301922,-9,-15,39,-19,44,53,-76,-3,,0
1624715058.301922,-3,0,-51,11,-123,-22,66,71,,0
1624715058.319394,-68,6,73,19,3,-68,37,-128,,1
1624715058.319394,121,127,127,127,127,126,127,127,,1
1624715058.329389,-58,-42,-38,-84,-64,49,91,127,,2
1624715058.329389,64,10,97,2,127,127,109,-119,,2
1624715058.341861,55,27,19,-13,-128,-128,-96,127,,3
1624715058.341861,127,127,115,66,105,117,127,127,,3
1624715058.352741,-118,-58,127,-38,14,-19,127,-1,,0
1624715058.352741,-80,30,45,24,34,80,-128,-128,,0
1624715058.3741,79,-74,-100,40,-108,-128,-113,-9,,1
1624715058.3741,127,127,127,127,127,124,75,120,,1
1624715058.37728,50,33,-15,-14,-88,-128,99,127,,2
1624715058.37728,13,51,88,19,127,127,4,112,,2
1624715058.3971279,-112,-67,-95,-17,-128,-20,52,123,,3
1624715058.3971279,127,114,127,127,127,127,127,127,,3
1624715058.4013638,-5,-43,-128,-128,-128,-106,28,-98,,0
1624715058.4013638,54,27,2,69,127,127,-128,127,,0
1624715058.417482,-37,-24,-96,83,-128,20,-18,-7,,1
1624715058.417482,127,101,47,0,72,127,123,127,,1
1624715058.427062,-40,56,100,33,-128,-107,11,-87,,2
1624715058.427062,-8,-41,3,-16,55,56,-27,86,,2
1624715058.4486148,117,3,82,122,114,76,49,127,,3
1624715058.4486148,127,123,127,127,127,127,127,127,,3
1624715058.451493,-71,18,121,127,88,75,20,-128,,0
1624715058.451493,111,15,-128,-128,-128,-31,23,127,,0
1624715058.471541,17,-19,26,56,-86,-120,17,-21,,1
1624715058.471541,127,117,79,127,127,127,127,127,,1
1624715058.474163,63,62,-47,-128,-128,-128,53,127,,2
1624715058.474163,-9,28,127,127,99,-87,127,124,,2
1624715058.493176,-2,-75,-15,58,127,127,23,-128,,3
1624715058.493176,117,113,78,91,124,127,90,122,,3
1624715058.501718,-105,-79,65,91,24,4,-128,-128,,0
1624715058.501718,75,-13,-128,0,41,-72,18,127,,0
1624715058.5144541,24,5,127,-61,-128,-1,127,-128,,1
1624715058.5144541,127,127,127,127,127,127,127,121,,1
1624715058.5247202,127,-52,46,-75,92,-128,127,127,,2
1624715058.5247202,-128,-74,-85,-58,-128,-11,-32,-128,,2
1624715058.546345,127,-8,-128,-128,-103,-128,-128,-128,,3
1624715058.546345,125,113,114,116,119,116,127,127,,3
1624715058.549302,-98,-28,-128,-128,-128,-108,-58,-58,,0
1624715058.549302,4,-67,10,108,127,127,89,59,,0
1624715058.5685802,-21,0,-4,76,-128,-128,-28,4,,1
1624715058.5685802,124,127,127,116,127,127,127,127,,1
1624715058.57155,16,4,59,22,76,-1,-26,-119,,2
1624715058.57155,-118,-2,46,12,120,57,25,118,,2
1624715058.591417,6,-38,-45,-70,-128,106,-13,64,,3
1624715058.591417,125,127,127,127,127,127,84,127,,3
1624715058.597164,55,-11,-83,-128,99,127,-19,30,,0
1624715058.597164,-13,-38,78,36,-128,-128,-19,18,,0
1624715058.613991,-70,4,118,127,83,127,-4,-41,,1
1624715058.613991,127,127,127,127,127,127,127,125,,1
1624715058.618516,9,-44,-128,-128,-37,29,-32,-77,,2
1624715058.618516,9,-24,121,-25,-73,-128,-79,-43,,2
1624715058.6351402,69,50,-54,102,112,8,22,8,,3
1624715058.6351402,127,124,120,127,126,127,118,127,,3
1624715058.64474,-5,10,-33,127,-102,22,22,-19,,0
1624715058.64474,110,-6,127,-24,127,73,81,-28,,0
1624715058.6655622,-75,18,83,127,13,-37,88,74,,1
1624715058.6655622,127,127,127,127,127,127,127,127,,1
1624715058.6676931,-128,8,112,84,5,66,-115,-39,,2
1624715058.6676931,127,22,127,67,59,6,127,105,,2
1624715058.688703,-4,35,39,111,10,-88,36,-97,,3
1624715058.688703,126,127,110,120,127,127,102,127,,3
1624715058.691404,108,23,-41,54,-15,6,-81,-24,,0
1624715058.691404,-21,3,40,91,13,-16,-58,14,,0
1624715058.711326,63,-43,-25,-120,-1,50,104,-3,,1
1624715058.711326,127,127,122,122,125,127,112,127,,1
1624715058.7141728,-98,-5,-128,-128,-66,-39,100,-8,,2
1624715058.7141728,125,20,9,127,29,10,81,36,,2
1624715058.7205288,-29,-5,-50,1,-1,5,-102,-11,,3
1624715058.7205288,-6,-7,-27,-40,-12,-1,-18,2,,3
1624715058.721826,5,-7,-27,-104,-25,-6,-21,10,,0
1624715058.721826,-45,-38,-27,-128,-27,-7,-66,-23,,0
1624715058.7255301,57,100,127,127,62,11,90,21,,1
1624715058.7255301,32,-70,-103,25,-10,-29,116,17,,1
1624715058.726846,-5,-6,-30,35,-25,-32,-37,-5,,2
1624715058.726846,-17,-26,-74,77,11,8,-64,-17,,2
1624715058.7331991,-34,-3,12,-43,-12,23,59,4,,3
1624715058.7331991,29,-12,-3,57,18,10,7,0,,3
1624715058.734484,-18,7,-19,-73,-17,-7,13,-11,,0
1624715058.734484,54,20,34,-128,-8,8,-4,71,,0
1624715058.7415118,-16,-38,-107,18,57,18,-28,-18,,1
1624715058.7415118,21,-7,-8,8,-4,-14,41,3,,1
1624715058.744203,-8,-7,-30,41,-14,-16,-19,3,,2
1624715058.744203,-11,6,-68,-19,-17,2,-37,-17,,2
1624715058.7481222,-4,1,-4,-37,-22,-8,-78,-5,,3
1624715058.7481222,8,-10,-87,-47,13,8,21,18,,3
1624715058.7494311,-73,35,-85,-128,-42,-52,127,-31,,0
1624715058.7494311,3,-7,10,119,4,-27,-41,-30,,0
1624715058.756021,-36,-2,-63,-7,2,8,-32,-11,,1
1624715058.756021,3,24,104,31,6,2,6,4,,1
1624715058.75754,-3,2,-25,-24,-12,-8,-2,-2,,2
1624715058.75754,6,-17,-61,5,-12,5,30,1,,2
1624715058.763137,49,16,-8,-47,-4,-7,-43,-8,,3
1624715058.763137,-9,-43,-62,-42,4,3,24,-6,,3
1624715058.764343,1,10,-128,-72,-22,-8,24,11,,0
1624715058.764343,-4,-24,86,73,19,1,-17,4,,0
1624715058.77046,-14,-8,-6,-128,-38,3,-128,-21,,1
1624715058.77046,22,-10,-111,-66,-25,-24,123,-12,,1
1624715058.7718568,53,38,-15,127,36,-10,-27,9,,2
1624715058.7718568,0,10,40,62,64,9,-15,-6,,2
1624715058.7782972,-9,-2,5,-88,-93,-24,-99,-20,,3
1624715058.7782972,-4,2,-19,-1,-8,3,9,1,,3
1624715058.7812421,7,2,14,7,-2,1,-49,-22,,0
1624715058.7812421,-5,2,32,-128,8,8,18,-4,,0
1624715058.785692,37,61,127,124,56,27,43,88,,1
1624715058.785692,-1,35,127,101,45,17,47,-24,,1
1624715058.787403,24,-23,-101,-128,-23,-5,-113,6,,2
1624715058.787403,-33,-22,-69,127,39,25,31,56,,2
1624715058.792762,10,-6,22,-52,-1,1,-39,13,,3
1624715058.792762,-128,-7,-8,-49,-55,-4,-14,-36,,3
1624715058.7939441,127,37,61,127,56,0,127,10,,0
1624715058.7939441,-47,29,127,77,-4,0,-80,-33,,0
1624715058.801939,-3,-14,-42,-128,-10,9,-40,10,,1
1624715058.801939,-2,-5,-29,-53,-24,2,-4,5,,1
1624715058.8043442,-6,2,-1,-67,0,-7,-7,13,,2
1624715058.8043442,-4,-39,-128,-46,-22,-16,4,-7,,2
1624715058.8073878,0,-7,127,49,6,23,27,5,,3
1624715058.8073878,8,20,18,-44,2,-16,33,5,,3
1624715058.8086169,-3,3,8,127,-10,1,-48,-5,,0
1624715058.8086169,-21,-34,-95,-119,-3,34,127,42,,0
1624715058.817131,-33,-26,-38,-106,-61,-81,-128,-94,,1
1624715058.817131,-13,13,127,127,27,7,108,-28,,1
1624715058.819649,48,13,-76,120,16,-9,-2,37,,2
1624715058.819649,-11,-6,-122,-4,0,-4,-53,-15,,2
1624715058.822007,-7,3,38,-60,-8,5,-81,-4,,3
1624715058.822007,15,-6,-12,-80,-13,-2,24,5,,3
1624715058.82285,-49,1,30,-16,-13,-14,-27,-9,,0
1624715058.82285,4,-2,9,-4,2,4,9,-1,,0
1624715058.8461142,3,-3,1,9,3,6,-41,-5,,1
1624715058.8461142,2,-5,10,-5,0,-4,21,1,,1
1624715058.84931,-5,4,20,-16,-25,-12,-49,-5,,2
1624715058.84931,9,5,-30,-48,18,7,90,6,,2
1624715058.868604,3,4,32,94,17,11,-45,1,,3
1624715058.868604,3,-8,-11,2,3,-6,59,9,,3
1624715058.871907,1,13,50,-15,-10,0,-67,-4,,0
1624715058.871907,-6,-5,-12,-12,-2,1,-37,-5,,0
1624715058.890759,-5,-6,2,-10,1,9,-30,-7,,1
1624715058.890759,0,0,3,-14,-5,-8,3,-2,,1
1624715058.8995242,-4,1,14,-12,10,5,2,5,,2
1624715058.8995242,1,2,3,2,0,3,-26,0,,2
1624715058.921192,-2,-5,0,56,-30,-18,-9,-6,,3
1624715058.921192,-1,-3,-6,-113,6,9,21,-1,,3
1624715058.924149,3,8,14,62,15,9,2,3,,0
1624715058.924149,-3,-8,-4,21,28,10,12,1,,0
1624715058.927775,-4,2,-2,3,7,4,-40,-5,,1
1624715058.927775,2,-2,-7,-3,10,-10,9,5,,1
1624715058.9291809,0,7,6,-21,-62,-6,-29,-3,,2
1624715058.9291809,-1,-6,5,3,6,1,-22,-8,,2
1624715058.936619,1,9,4,12,17,8,-25,-7,,3
1624715058.936619,3,6,57,10,15,3,2,1,,3
1624715058.93961,-2,-7,-5,-24,-54,-28,-14,-3,,0
1624715058.93961,1,7,-8,3,-7,0,-11,-1,,0
1624715058.9425228,1,-4,-8,10,-2,9,-10,4,,1
1624715058.9425228,-1,2,9,1,6,1,44,-1,,1
1624715058.9436622,-2,-3,-2,-10,4,-9,6,-7,,2
1624715058.9436622,-3,-4,-22,-8,-1,6,-20,2,,2
1624715058.9502661,-5,-18,13,24,42,0,-39,-7,,3
1624715058.9502661,3,14,1,23,13,1,1,2,,3
1624715058.951662,0,-12,-45,-16,6,19,-53,5,,0
1624715058.951662,-6,-4,-48,-16,6,-17,-49,-10,,0
1624715058.958515,-7,-2,48,73,-28,4,-37,-9,,1
1624715058.958515,6,1,-25,-47,16,1,34,3,,1
1624715058.9615219,-2,3,-18,-8,24,13,-26,3,,2
1624715058.9615219,-1,4,-8,17,30,0,-19,-1,,2
1624715058.9652731,-3,-10,-4,34,21,-6,-26,1,,3
1624715058.9652731,0,4,-12,-23,-67,-16,-26,0,,3
1624715058.966719,-3,-2,-4,-19,-39,-7,-34,2,,0
1624715058.966719,-1,-3,-6,-13,-4,4,-23,0,,0
1624715058.982114,-6,-4,-11,29,26,9,-35,-6,,1
1624715058.982114,-2,-2,-2,-1,12,-9,24,-1,,1
1624715058.983547,1,5,38,-14,-59,-12,-34,-5,,2
1624715058.983547,-1,-4,-55,-22,-18,13,-5,-1,,2
1624715058.986496,-4,-8,3,10,50,7,5,-5,,3
1624715058.986496,-4,-2,-18,-26,-76,-20,-37,-3,,3
1624715058.988121,5,1,73,16,34,11,11,5,,0
1624715058.988121,-4,-13,-32,-6,25,-3,-41,-5,,0
1624715058.989541,2,-14,-112,2,34,13,11,-3,,1
1624715058.989541,2,28,43,12,97,26,0,5,,1
1624715058.990806,2,1,7,-7,10,-13,-6,7,,2
1624715058.990806,-3,-2,42,0,-32,2,-37,-12,,2
1624715058.995798,-2,-12,-16,14,70,24,-13,1,,3
1624715058.995798,-1,0,21,9,54,-8,-19,-2,,3
1624715058.998875,0,6,54,32,80,20,-23,0,,0
1624715058.998875,1,-8,-38,-25,-25,10,-16,2,,0
1624715059.0024781,-4,-1,-10,8,-92,-35,-18,-6,,1
1624715059.0024781,6,-24,-21,-56,31,8,36,7,,1
1624715059.0037708,3,-8,8,7,54,21,-20,6,,2
1624715059.0037708,1,-2,13,-8,35,-5,-13,-1,,2
1624715059.010252,-10,47,-100,33,-10,7,-57,-7,,3
1624715059.010252,-8,72,42,-8,34,-8,29,-9,,3
1624715059.011672,-1,20,-45,51,11,16,26,5,,0
1624715059.011672,1,-8,-7,1,7,8,-2,-1,,0
1624715059.018163,0,-26,-9,5,4,6,-2,-7,,1
1624715059.018163,-1,-22,4,-22,-26,-13,17,-4,,1
1624715059.0202088,-3,-25,-10,-67,16,3,-14,-1,,2
1624715059.0202088,9,5,-53,-10,-10,7,-10,-3,,2
1624715059.025171,5,0,5,53,-16,0,9,-2,,3
1624715059.025171,-1,-5,23,12,-14,4,13,3,,3
1624715059.026177,-1,-2,30,0,-4,-12,-30,-3,,0
1624715059.026177,1,-7,-46,-29,-42,-14,-18,0,,0
1624715059.032804,-1,-28,-32,-5,71,-3,-12,-5,,1
1624715059.032804,-8,-2,-45,-20,41,13,13,-2,,1
1624715059.0343711,1,-1,33,-2,-43,-8,-14,-1,,2
1624715059.0343711,3,1,5,8,36,16,-5,3,,2
1624715059.057384,-4,-4,-15,-20,-98,-55,-25,-16,,3
1624715059.057384,-4,-3,8,10,31,4,17,16,,3
1624715059.060977,-5,0,6,41,-14,-8,-39,-6,,0
1624715059.060977,3,-1,10,-28,26,7,-6,6,,0
1624715059.078463,4,-12,-82,-25,-8,10,-10,-3,,1
1624715059.078463,-5,-2,49,-14,7,-3,-2,-3,,1
1624715059.0874088,2,9,-9,-50,-14,1,18,5,,2
1624715059.0874088,1,-5,-27,25,8,6,-7,4,,2
1624715059.099699,-2,-7,5,26,4,2,-26,-6,,3
1624715059.099699,1,5,25,2,3,2,14,0,,3
1624715059.1097689,8,7,3,33,-5,-3,-30,5,,0
1624715059.1097689,1,-7,-8,-42,-11,-5,-12,-5,,0
1624715059.1224818,-3,-13,1,47,28,17,-31,-6,,1
1624715059.1224818,-6,-4,-18,-128,-7,-14,9,-3,,1
1624715059.1322591,7,11,25,127,7,12,12,6,,2
1624715059.1322591,-1,-5,4,-47,10,5,-5,1,,2
1624715059.154735,-1,-12,11,51,-110,-19,-3,-10,,3
1624715059.154735,4,3,-23,-27,30,15,26,6,,3
1624715059.158976,-2,-4,21,-29,-28,-14,-20,-3,,0
1624715059.158976,2,-4,-9,-36,-9,7,10,-2,,0
1624715059.175999,-4,-9,44,25,8,-7,0,-10,,1
1624715059.175999,-2,4,4,-13,1,-5,17,0,,1
1624715059.177768,2,2,7,-13,-1,9,-8,6,,2
1624715059.177768,-4,-6,22,-24,42,7,-13,-6,,2
1624715059.206249,-1,-14,-10,-110,-29,11,-24,-2,,3
1624715059.206249,-5,-1,9,127,35,-11,42,2,,3
1624715059.208607,5,6,13,11,-10,-5,-14,3,,0
1624715059.208607,-1,-2,-5,-41,1,0,-13,-4,,0
1624715059.237992,-1,-5,-3,12,-2,4,1,-4,,1
1624715059.237992,2,9,14,-11,-4,-1,14,3,,1
1624715059.242472,4,-1,-10,-79,16,1,-15,2,,2
1624715059.242472,-2,-2,4,38,-22,-2,3,-1,,2
1624715059.266387,1,-4,22,71,25,14,0,-3,,3
1624715059.266387,4,15,72,21,14,-1,27,4,,3
1624715059.2759821,-3,-3,28,-15,-23,5,-34,-6,,0
1624715059.2759821,0,-3,-24,79,18,1,-1,-3,,0
1624715059.3035111,-1,-8,-21,-62,-26,-7,-2,-8,,1
1624715059.3035111,-2,2,5,34,64,7,25,2,,1
1624715059.312972,3,16,60,51,-9,12,-15,5,,2
1624715059.312972,5,-1,52,-6,7,6,-2,4,,2
1624715059.343206,-2,-14,-72,-11,-35,-15,-31,-14,,3
1624715059.343206,-8,5,-16,38,3,-5,-16,-2,,3
1624715059.347532,-10,-1,-47,-117,-12,-3,-48,0,,0
1624715059.347532,3,7,-5,68,7,5,12,31,,0
1624715059.371763,-4,-6,-37,12,11,8,4,13,,1
1624715059.371763,0,5,17,-6,-3,-5,34,10,,1
1624715059.379827,1,-9,-4,-10,-6,-1,-1,-3,,2
1624715059.379827,1,-18,-18,-14,-11,1,-4,-10,,2
1624715059.409665,2,-15,-14,16,18,4,3,-18,,3
1624715059.409665,6,10,8,28,6,-2,28,0,,3
1624715059.412823,1,-2,24,-15,-45,-10,-12,-8,,0
1624715059.412823,-3,0,27,23,9,7,-9,-13,,0
1624715059.437543,-2,-5,11,-5,1,4,4,-9,,1
1624715059.437543,1,10,24,19,-4,-5,32,9,,1
1624715059.445138,-1,-6,-2,-8,-5,-6,-27,-4,,2
1624715059.445138,-2,-8,-18,-8,5,9,-6,-6,,2
1624715059.4605708,-3,-8,-27,-70,-104,-43,-7,-11,,3
1624715059.4605708,4,12,1,-11,-26,-1,47,14,,3
1624715059.462694,1,4,-33,18,1,4,-30,1,,0
1624715059.462694,-1,-7,-13,14,15,5,0,-2,,0
1624715059.4752488,-7,-16,25,31,10,5,-11,-8,,1
1624715059.4752488,6,20,33,-10,5,-1,42,15,,1
1624715059.476564,-3,-5,4,-26,-9,-4,-34,-5,,2
1624715059.476564,1,7,14,25,0,-3,-11,-3,,2
1624715059.4894779,-3,-7,-9,4,4,1,-8,-7,,3
1624715059.4894779,2,12,32,18,4,-2,37,12,,3
1624715059.490216,3,6,28,-21,-9,-1,-26,-2,,0
1624715059.490216,2,-6,-18,-23,1,4,-4,-1,,0
1624715059.5062358,-2,-5,33,54,9,-4,-23,-9,,1
1624715059.5062358,3,13,-13,-24,-9,-5,51,14,,1
1624715059.5088189,0,-2,0,11,-7,-2,-25,-5,,2
1624715059.5088189,1,-7,-3,3,2,-3,-12,-4,,2
1624715059.5367308,-2,-8,-2,8,-4,-3,-5,-11,,3
1624715059.5367308,-1,8,9,-22,-29,-9,30,3,,3
1624715059.549721,0,-5,6,25,-11,1,-20,-5,,0
1624715059.549721,-4,-1,-8,44,1,2,-10,-6,,0
1624715059.5736902,0,2,1,13,9,3,1,-6,,1
1624715059.5736902,6,11,19,3,7,2,44,16,,1
1624715059.5790699,0,-9,-34,-128,-18,-5,-38,-12,,2
1624715059.5790699,7,7,-1,-4,11,7,29,9,,2
1624715059.58923,-2,-8,-4,30,5,1,3,-6,,3
1624715059.58923,1,19,14,6,0,-6,39,8,,3
1624715059.592405,-1,-6,1,-6,-3,1,-13,-1,,0
1624715059.592405,0,-4,-19,-8,3,3,-7,-6,,0
1624715059.604059,-1,-10,-2,-3,1,-4,11,-4,,1
1624715059.604059,2,18,16,-2,-47,-18,49,13,,1
1624715059.6067939,1,-1,-3,-2,-5,4,-21,-6,,2
1624715059.6067939,1,-2,-14,-12,-3,8,-1,-2,,2
1624715059.618918,0,-3,20,25,11,0,8,-6,,3
1624715059.618918,0,14,11,-11,-3,-4,43,13,,3
1624715059.622388,-1,-7,-16,-14,-3,-1,-9,0,,0
1624715059.622388,-10,-11,5,34,3,0,-22,-12,,0
1624715059.634618,2,-1,-27,35,15,9,20,2,,1
1624715059.634618,4,19,-6,4,-3,-7,51,17,,1
1624715059.6360419,-5,-5,27,1,-4,0,-20,-2,,2
1624715059.6360419,-5,-6,25,6,-1,-1,-9,-8,,2
1624715059.648087,3,0,-1,4,8,1,5,-4,,3
1624715059.648087,-3,7,9,-11,-6,-4,49,17,,3
1624715059.649605,1,-2,3,0,-8,-3,-10,-3,,0
1624715059.649605,-3,-6,-2,-27,5,2,-12,-7,,0
1624715059.6564329,0,-2,-15,-3,-2,3,10,-4,,1
1624715059.6564329,3,18,25,4,7,-1,48,13,,1
1624715059.659429,1,-4,-20,-20,-9,-1,-17,-3,,2
1624715059.659429,-2,-7,-10,11,-1,-2,-14,-6,,2
1624715059.663105,0,0,-3,-9,3,-6,10,0,,3
1624715059.663105,2,11,11,30,-8,-3,58,13,,3
1624715059.6645079,0,-2,-20,-10,-1,3,-13,-3,,0
1624715059.6645079,-3,-12,-1,-14,8,8,0,-2,,0
1624715059.6714802,2,-4,-2,25,8,-2,13,-1,,1
1624715059.6714802,0,15,11,-9,-6,-7,49,9,,1
1624715059.673347,3,13,5,-13,-8,-7,47,2,,2
1624715059.673347,-2,-1,-14,-2,-1,-4,-14,-4,,2
1624715059.677669,0,7,11,1,5,-3,70,4,,3
1624715059.677669,4,25,26,-29,-6,-11,47,10,,3
1624715059.679567,2,2,-7,-43,-12,-6,67,7,,0
1624715059.679567,-3,-9,-10,-59,-17,1,-45,-12,,0
1624715059.700823,-3,2,0,60,13,3,74,0,,1
1624715059.700823,2,21,10,13,-9,-9,26,21,,1
1624715059.703843,3,5,-11,-6,-5,-2,34,3,,2
1624715059.703843,-5,-20,-4,9,2,5,-92,-11,,2
1624715059.7235992,-1,9,8,-7,4,-7,63,3,,3
1624715059.7235992,-1,14,11,-10,-10,-2,-22,8,,3
1624715059.727008,-2,2,-4,-12,-8,-2,36,6,,0
1624715059.727008,-6,-14,-14,11,-10,4,-97,-11,,0
1624715059.729995,1,8,15,6,9,0,60,7,,1
1624715059.729995,-3,7,-9,-3,-12,-15,-32,5,,1
1624715059.731145,-1,-7,-5,-7,-2,3,-19,-6,,2
1624715059.731145,1,-8,-2,21,3,6,-34,-9,,2
1624715059.7385118,1,-3,-5,-7,3,-2,23,2,,3
1624715059.7385118,4,20,9,-4,-7,-9,58,18,,3
1624715059.7415838,-1,-8,-4,-15,-11,-3,-10,-3,,0
1624715059.7415838,-4,-22,-2,-57,1,6,-21,-8,,0
1624715059.74527,0,2,9,53,22,5,19,4,,1
1624715059.74527,4,20,15,-13,-9,-8,52,17,,1
1624715059.746698,-4,-7,-7,1,0,-4,-6,-3,,2
1624715059.746698,-3,-13,4,34,-2,5,-36,-8,,2
1624715059.753452,0,0,-5,-1,6,-2,15,2,,3
1624715059.753452,-4,3,-11,14,-8,-3,-42,5,,3
1624715059.754886,-2,0,-17,-81,-12,-3,12,3,,0
1624715059.754886,-4,-25,-12,8,-1,5,-115,-24,,0
1624715059.76016,-4,9,19,34,8,-3,41,4,,1
1624715059.76016,4,7,4,23,-11,-1,-20,12,,1
1624715059.761747,-3,7,10,-1,-6,-6,-2,2,,2
1624715059.761747,-4,-26,-21,6,5,7,-100,-21,,2
1624715059.783298,-1,6,1,1,1,-6,12,0,,3
1624715059.783298,-1,3,9,-15,-6,-4,-18,2,,3
1624715059.7862358,2,6,23,-1,-8,-4,9,5,,0
1624715059.7862358,-1,-21,-25,0,3,4,-83,-16,,0
1624715059.8056161,-1,3,7,-2,0,1,17,2,,1
1624715059.8056161,-4,12,-22,-26,2,0,-6,8,,1
1624715059.807797,-2,-2,-4,-11,-19,-15,17,6,,2
1624715059.807797,-33,-32,-32,-54,6,6,-83,-18,,2
1624715059.828362,11,14,10,25,0,-3,27,-1,,3
1624715059.828362,-4,9,9,-1,-9,-7,10,11,,3
1624715059.831116,3,-1,-4,-3,-5,1,-8,-1,,0
1624715059.831116,-3,-23,-24,8,5,7,-69,-16,,0
1624715059.851226,4,5,13,8,2,-4,17,3,,1
1624715059.851226,0,6,-1,-17,-8,-6,13,6,,1
1624715059.853889,4,13,-10,-14,-12,-2,-13,2,,2
1624715059.853889,-5,-25,-38,1,5,7,-74,-18,,2
1624715059.872836,2,5,-10,6,5,-1,20,7,,3
1624715059.872836,11,24,39,-29,-9,-7,54,10,,3
1624715059.88196,-10,-10,-5,7,-6,2,-5,3,,0
1624715059.88196,0,-9,-20,-57,-5,-3,-28,-12,,0
1624715059.889709,-38,-3,1,29,15,0,17,-16,,1
1624715059.889709,39,26,17,-68,-12,-15,44,52,,1
1624715059.891208,-3,-4,9,43,3,8,-6,-8,,2
1624715059.891208,-9,-12,-10,6,-1,3,-35,-12,,2
1624715059.8923142,-5,-2,-7,-39,6,-1,-4,-4,,3
1624715059.8923142,0,23,8,2,-10,-10,59,23,,3
1624715059.8934069,-4,-4,0,-11,-7,6,-16,-7,,0
1624715059.8934069,0,-12,-2,2,-3,4,-38,-11,,0
1624715059.895744,0,1,-8,2,21,4,22,4,,1
1624715059.895744,6,17,22,-12,-15,-11,45,17,,1
1624715059.897839,0,-8,-26,-9,-7,-1,-10,-1,,2
1624715059.897839,10,-9,12,-9,-3,1,-31,-13,,2
1624715059.91853,-14,-6,-23,-26,2,1,9,0,,3
1624715059.91853,-37,4,50,30,-8,-9,25,12,,3
1624715059.921609,6,-4,-25,-14,5,6,1,1,,0
1624715059.921609,3,-13,-13,22,4,1,-38,-14,,0
1624715059.941131,2,3,12,9,4,-4,7,1,,1
1624715059.941131,5,11,4,-1,-17,-7,39,14,,1
1624715059.944462,0,-6,2,-10,-3,-6,-12,-3,,2
1624715059.944462,-2,-7,-14,-5,1,3,-39,-9,,2
1624715059.962028,1,0,6,-17,5,0,19,2,,3
1624715059.962028,2,9,21,44,-15,-6,32,21,,3
1624715059.971838,-3,-11,-3,-42,-3,0,-25,-10,,0
1624715059.971838,-4,-14,-56,50,7,3,-14,-5,,0
1624715059.9931579,2,0,12,24,3,1,13,-4,,1
1624715059.9931579,-3,15,16,-10,-7,-10,34,26,,1
1624715059.995282,-7,-7,-4,-14,-6,-2,-15,-10,,2
1624715059.995282,-6,-9,-6,-3,8,10,-35,-15,,2
1624715060.01692,0,4,-17,-3,0,-3,29,11,,3
1624715060.01692,6,17,29,26,-12,-7,36,14,,3
1624715060.020594,-23,-10,-13,-89,-7,0,-27,-8,,0
1624715060.020594,-7,2,-17,11,4,3,-35,-9,,0
1624715060.038808,1,7,21,24,13,4,20,2,,1
1624715060.038808,-1,6,-16,54,-17,-7,16,10,,1
1624715060.041782,25,-1,27,-101,-6,8,11,7,,2
1624715060.041782,-50,-17,-43,-71,3,1,-19,-14,,2
1624715060.0611122,-29,-33,45,38,4,-5,12,-17,,3
1624715060.0611122,6,17,-8,1,-21,-24,7,5,,3
1624715060.0643342,6,-5,28,6,-1,3,-3,7,,0
1624715060.0643342,-12,-17,-21,-13,0,4,-15,2,,0
1624715060.0681002,18,7,-12,-17,2,-1,35,6,,1
1624715060.0681002,-3,10,22,30,-15,-6,8,10,,1
1624715060.0696619,-3,-7,7,-11,9,4,-20,-6,,2
1624715060.0696619,-3,-3,-3,10,5,0,-53,-14,,2
1624715060.076255,-9,-1,-22,5,0,2,39,8,,3
1624715060.076255,6,13,9,-6,-12,-10,-33,10,,3
1624715060.0793989,0,-5,4,-10,-2,3,-15,-8,,0
1624715060.0793989,4,-6,-11,-20,4,6,-34,-12,,0
1624715060.0825422,-3,-6,-3,22,3,0,26,6,,1
1624715060.0825422,2,11,-6,-4,-15,-7,-7,13,,1
1624715060.083841,-1,-4,1,-23,-4,0,10,-7,,2
1624715060.083841,-27,-8,-6,20,9,-1,-48,-18,,2
1624715060.106103,3,1,11,17,5,3,11,-5,,3
1624715060.106103,13,12,-8,-31,-10,11,47,25,,3
1624715060.1088471,-5,-8,2,-44,4,-23,-74,-13,,0
1624715060.1088471,1,-11,8,75,11,10,-25,-2,,0
1624715060.128181,-4,1,-11,6,5,6,18,10,,1
1624715060.128181,-7,10,0,-29,-6,2,46,19,,1
1624715060.13034,-20,-10,-26,-59,-10,-3,-54,-6,,2
1624715060.13034,7,-8,-14,8,3,4,-69,-4,,2
1624715060.152158,3,-17,-11,88,-1,-3,6,-1,,3
1624715060.152158,6,-5,14,-25,-22,-12,-12,12,,3
1624715060.15518,1,-10,-5,-32,-5,0,-27,-10,,0
1624715060.15518,-4,-9,3,25,9,3,-71,-20,,0
1624715060.1741881,-2,4,-1,13,6,-5,-35,-3,,1
1624715060.1741881,3,14,16,1,-6,-6,-17,3,,1
1624715060.177376,0,5,6,-2,-3,-4,-25,-8,,2
1624715060.177376,5,-1,-7,3,5,0,-55,-15,,2
1624715060.194226,18,12,-2,-3,8,0,36,25,,3
1624715060.194226,-30,4,11,-14,-8,-3,-23,2,,3
1624715060.204554,10,2,-3,-8,-2,3,-25,-10,,0
1624715060.204554,-4,-8,-5,19,4,2,-26,-15,,0
1624715060.216962,-4,1,2,-1,-2,-8,7,1,,1
1624715060.216962,-2,3,-1,-55,-12,-6,-28,3,,1
1624715060.226487,1,-2,1,17,0,5,25,-1,,2
1624715060.226487,-3,-8,-8,-21,15,5,-43,-12,,2
1624715060.2398841,-1,3,7,25,-3,-2,41,9,,3
1624715060.2398841,13,9,5,-25,-14,-5,-31,12,,3
1624715060.249304,-16,-5,-12,3,1,5,-11,1,,0
1624715060.249304,27,-8,-9,4,24,12,-27,-22,,0
1624715060.270914,-47,-6,9,16,3,-10,11,7,,1
1624715060.270914,-12,7,8,-8,-10,-6,-35,6,,1
1624715060.273876,9,-6,0,-2,-4,7,-9,1,,2
1624715060.273876,6,-15,-24,6,6,6,-25,-7,,2
1624715060.294553,3,9,12,-3,1,-3,27,4,,3
1624715060.294553,-13,-5,21,-9,-14,-6,-22,10,,3
1624715060.2993019,-2,-1,29,-7,-1,-3,-23,-4,,0
1624715060.2993019,-1,-12,-58,18,6,6,-25,-7,,0
1624715060.315882,-4,3,-3,-15,1,-4,27,1,,1
1624715060.315882,-3,1,16,-4,-10,-6,-32,0,,1
1624715060.3188632,1,6,-4,-23,0,1,-7,3,,2
1624715060.3188632,-3,-5,-12,23,9,5,-46,-8,,2
1624715060.338829,2,1,31,4,8,-4,48,3,,3
1624715060.338829,2,4,1,-11,-12,-5,-24,3,,3
1624715060.341731,-2,-4,-8,1,7,1,-20,-7,,0
1624715060.341731,-2,-4,-15,1,-24,-2,-33,-12,,0
1624715060.34531,1,4,5,4,3,1,59,2,,1
1624715060.34531,1,7,8,-2,-5,-3,-33,3,,1
1624715060.3467479,-1,-3,-26,-33,0,1,-4,-1,,2
1624715060.3467479,-7,-10,4,-17,-5,-1,-1,-12,,2
1624715060.3533828,-4,-2,-4,84,5,-1,7,-2,,3
1624715060.3533828,-1,7,-13,-117,-18,-6,-27,7,,3
1624715060.354827,2,2,3,16,-1,1,-13,-2,,0
1624715060.354827,-3,-11,-5,29,2,4,-46,-9,,0
1624715060.360289,-1,-2,-3,1,5,-5,40,6,,1
1624715060.360289,1,2,8,-14,-12,-2,-38,8,,1
1624715060.36165,1,0,-8,3,-1,2,13,-4,,2
1624715060.36165,-2,-7,-12,2,5,3,-30,-7,,2
1624715060.367578,2,1,4,-6,-2,-4,35,4,,3
1624715060.367578,4,6,8,0,-9,-2,-42,5,,3
1624715060.368734,-5,-7,-1,7,-1,-2,1,-3,,0
1624715060.368734,-2,-9,-18,0,4,4,-45,-13,,0
1624715060.376394,5,5,50,25,2,1,33,1,,1
1624715060.376394,4,10,36,-1,-3,0,-39,5,,1
1624715060.3791602,1,-3,-16,21,-1,2,2,2,,2
1624715060.3791602,-3,-7,18,8,9,6,-34,-8,,2
1624715060.382737,2,-2,2,36,5,-1,17,3,,3
1624715060.382737,0,4,0,-72,-8,-2,-23,3,,3
1624715060.384046,13,24,-5,10,-1,3,-30,2,,0
1624715060.384046,-2,6,-8,15,2,-4,-36,-10,,0
1624715060.3904908,-2,2,4,3,2,-5,16,3,,1
1624715060.3904908,-1,2,-5,5,-8,0,-60,3,,1
1624715060.391894,-3,-17,7,-34,4,4,-3,-2,,2
1624715060.391894,0,-12,-6,17,19,8,-25,-6,,2
1624715060.398359,0,-6,-11,-13,-9,-14,55,3,,3
1624715060.398359,-2,-2,10,-10,-16,-9,-6,2,,3
1624715060.401417,2,-11,5,28,13,3,-12,0,,0
1624715060.401417,-5,-13,-10,14,11,6,-14,-9,,0
1624715060.405323,8,17,4,-1,-1,-4,37,3,,1
1624715060.405323,-3,-6,-7,-11,-7,0,-33,3,,1
1624715060.406792,-4,-5,-12,-3,-7,-3,-18,-1,,2
1624715060.406792,-9,-13,-13,-16,4,3,-59,-12,,2
1624715060.4285078,1,1,12,9,3,-5,41,5,,3
1624715060.4285078,0,-1,-2,-20,-11,-6,-5,-3,,3
1624715060.4311738,-3,-6,-10,-12,-5,-2,-60,0,,0
1624715060.4311738,0,-4,-4,23,10,4,3,-7,,0
1624715060.451072,-3,3,13,14,6,-2,13,2,,1
1624715060.451072,5,3,-33,-128,-16,-3,12,7,,1
1624715060.454015,7,2,4,68,13,6,2,-2,,2
1624715060.454015,-1,-7,2,25,-10,-3,-23,-12,,2
1624715060.474879,-1,-3,-2,-12,-2,-4,25,5,,3
1624715060.474879,-1,4,-5,38,-6,-1,-30,-1,,3
1624715060.4794948,-6,-2,33,-64,13,3,-10,-2,,0
1624715060.4794948,-1,-3,-8,20,4,1,2,-4,,0
1624715060.495848,1,3,0,2,-7,-7,14,2,,1
1624715060.495848,1,-2,1,6,-1,-4,-37,-6,,1
1624715060.49882,1,0,4,13,0,0,2,-5,,2
1624715060.49882,-2,-7,-9,-11,3,1,-9,-6,,2
1624715060.517827,-3,2,5,-9,0,-2,22,2,,3
1624715060.517827,2,-2,1,9,-10,-2,-23,1,,3
1624715060.5244422,0,1,-7,-6,-3,-3,-13,-1,,0
1624715060.5244422,-3,-11,-11,6,9,3,-43,-10,,0
1624715060.539514,1,0,13,82,3,-1,25,4,,1
1624715060.539514,-5,0,-10,-70,-13,0,6,3,,1
1624715060.549403,-31,-12,-9,-14,-5,-19,-56,-23,,2
1624715060.549403,17,4,-9,41,9,7,8,-6,,2
1624715060.5617049,-2,3,19,-17,-3,-1,28,4,,3
1624715060.5617049,1,9,6,13,-5,0,-29,1,,3
1624715060.572097,0,2,-21,0,-8,1,-21,0,,0
1624715060.572097,-10,-22,-12,-17,3,2,4,-6,,0
1624715060.602082,-1,5,-6,12,3,-3,26,0,,1
1624715060.602082,0,2,-2,5,-3,-1,-36,-4,,1
1624715060.606076,-1,-1,-5,6,2,0,-16,-3,,2
1624715060.606076,-2,-8,-14,10,7,3,-12,-5,,2
1624715060.615978,0,3,3,-6,-5,-2,20,6,,3
1624715060.615978,-2,-4,-9,-8,-8,-2,-49,1,,3
1624715060.618994,-3,-1,1,11,-2,5,-21,-8,,0
1624715060.618994,-5,-8,20,-4,10,0,-7,-10,,0
1624715060.638997,1,3,-29,10,-6,-7,7,8,,1
1624715060.638997,-1,2,30,7,-3,-4,-21,2,,1
1624715060.641887,1,-3,-1,-11,1,-1,-10,-2,,2
1624715060.641887,-3,-10,-4,28,9,5,-14,-8,,2
1624715060.66111,2,6,2,-10,-3,-2,29,3,,3
1624715060.66111,2,1,-128,-6,-11,-3,-21,2,,3
1624715060.664305,-1,-7,-75,-3,3,2,-23,-8,,0
1624715060.664305,-4,-5,-9,11,13,6,16,-5,,0
1624715060.667857,2,5,45,13,0,-2,21,4,,1
1624715060.667857,1,1,38,-8,-4,-1,-26,-2,,1
1624715060.669272,-2,-4,24,-8,-1,-1,-23,-4,,2
1624715060.669272,0,-1,34,-37,4,6,43,-3,,2
1624715060.67595,-20,3,49,18,3,-2,35,2,,3
1624715060.67595,8,-1,5,-9,-10,0,-21,-1,,3
1624715060.67955,-8,-6,11,-17,-5,5,-16,-2,,0
1624715060.67955,-1,-6,11,13,9,4,7,-4,,0
1624715060.682115,4,1,-6,34,-7,-6,0,5,,1
1624715060.682115,0,0,9,-67,-11,-2,-14,0,,1
1624715060.683029,1,0,-9,-5,-2,0,-36,-7,,2
1624715060.683029,2,-3,5,24,14,6,9,-6,,2
1624715060.689334,-1,4,10,11,-1,0,16,6,,3
1624715060.689334,0,3,13,-6,-3,0,-20,-4,,3
1624715060.6900449,-3,-3,-18,-4,0,0,-7,-2,,0
1624715060.6900449,-2,-3,-19,13,1,2,-14,-7,,0
1624715060.698126,-1,4,-2,-11,-1,-3,27,2,,1
1624715060.698126,5,2,22,50,-3,-1,-10,-1,,1
1624715060.701164,-12,-8,-6,-49,-3,1,-13,-6,,2
1624715060.701164,6,-6,-16,6,3,1,3,-2,,2
1624715060.7136781,-7,3,7,5,-4,-3,16,4,,3
1624715060.7136781,-2,-4,-8,19,-12,-1,-23,-5,,3
1624715060.7168891,5,3,-7,16,2,1,23,-1,,0
1624715060.7168891,3,2,-8,12,9,6,4,-5,,0
1624715060.727193,2,19,11,1,-1,-1,20,5,,1
1624715060.727193,-3,4,-9,-26,-12,-1,-5,2,,1
1624715060.7363572,1,-13,-14,25,7,3,3,-2,,2
1624715060.7363572,37,-12,16,29,8,3,-19,-2,,2
1624715060.750462,-11,-14,-19,-119,-10,1,85,11,,3
1624715060.750462,-35,-9,12,1,-9,-21,-63,-12,,3
1624715060.7571468,3,1,23,37,1,2,-6,0,,0
1624715060.7571468,4,-5,-8,8,12,8,4,0,,0
1624715060.774287,8,2,20,15,1,0,32,8,,1
1624715060.774287,1,3,-8,-4,-6,4,-26,3,,1
1624715060.7770538,2,3,21,8,5,2,37,0,,2
1624715060.7770538,2,12,13,35,8,2,11,-6,,2
1624715060.787019,2,13,4,-23,2,-1,47,7,,3
1624715060.787019,1,8,-6,-2,-3,1,-7,-2,,3
1624715060.7971241,2,2,-2,-6,0,1,-1,1,,0
1624715060.7971241,-3,-9,-12,17,4,0,9,-7,,0
1624715060.810219,-1,-2,-2,51,4,-1,62,4,,1
1624715060.810219,2,-7,-8,-1,-2,1,-23,-1,,1
1624715060.81717,0,-8,-14,-39,-5,2,19,1,,2
1624715060.81717,-3,-8,-15,13,5,0,7,-4,,2
1624715060.833492,-2,1,6,-3,-5,-1,54,2,,3
1624715060.833492,1,1,5,-5,-4,-1,-26,-5,,3
1624715060.8362508,-1,-1,-9,-9,-8,2,39,-8,,0
1624715060.8362508,-4,1,10,21,10,1,3,-4,,0
1624715060.847119,3,8,-3,-12,3,0,64,8,,1
1624715060.847119,3,5,30,18,-2,-2,-12,-1,,1
1624715060.856896,-2,-4,-29,-29,-7,1,7,-5,,2
1624715060.856896,2,0,56,44,10,3,10,-4,,2
1624715060.8782349,1,5,-11,-14,6,-1,61,6,,3
1624715060.8782349,-2,-3,5,5,1,1,-22,0,,3
1624715060.88096,-1,-3,6,0,0,5,13,0,,0
1624715060.88096,-3,-6,-13,-30,3,2,31,-7,,0
1624715060.8930938,2,11,3,19,-8,-7,72,11,,1
1624715060.8930938,-2,0,2,12,3,0,-23,-7,,1
1624715060.895505,-1,-3,-2,6,3,-3,3,-2,,2
1624715060.895505,1,-6,0,4,8,2,7,-5,,2
1624715060.9069078,1,8,12,0,-3,-3,65,10,,3
1624715060.9069078,-2,2,-7,-8,-4,-1,-17,-2,,3
1624715060.9164429,1,4,2,34,0,-1,37,0,,0
1624715060.9164429,-1,-3,-18,-33,-1,2,14,-1,,0
1624715060.930646,1,9,25,-7,1,-4,57,6,,1
1624715060.930646,-1,-2,-10,35,-6,-1,-17,1,,1
1624715060.937473,-5,-9,-27,-30,-3,1,12,-4,,2
1624715060.937473,-3,-9,-5,12,9,1,7,-4,,2
1624715060.9535282,2,6,11,22,-2,-4,60,3,,3
1624715060.9535282,-3,-5,3,-60,-11,-3,-12,1,,3
1624715060.9566112,0,-4,-2,18,6,6,7,-6,,0
1624715060.9566112,19,-2,-11,15,10,4,1,1,,0
1624715060.96749,-1,4,4,-8,-4,-4,61,11,,1
1624715060.96749,-1,2,3,0,-5,-2,-8,-1,,1
1624715060.976795,-3,-3,-12,-11,-4,-2,10,1,,2
1624715060.976795,20,0,11,23,9,4,0,1,,2
1624715061.0045,-27,4,3,-25,-7,-3,69,2,,3
1624715061.0045,5,15,10,100,9,8,-34,-3,,3
1624715061.014435,2,1,-20,-64,-7,-6,-6,-2,,0
1624715061.014435,-2,-3,-6,11,4,-1,6,-2,,0
1624715061.026446,4,9,10,0,-4,-3,68,7,,1
1624715061.026446,-2,-6,-10,-7,-3,7,-25,-2,,1
1624715061.03709,-3,-7,2,5,2,-8,-14,-7,,2
1624715061.03709,-4,-4,3,8,7,5,-3,-6,,2
1624715061.0590131,2,5,1,-36,-7,-7,68,8,,3
1624715061.0590131,-2,-4,0,10,-7,3,-28,-1,,3
1624715061.0631292,-1,-4,3,5,2,-2,-14,-3,,0
1624715061.0631292,-2,-5,-11,-1,6,3,-5,-5,,0
1624715061.080935,3,9,6,-4,-4,-6,84,13,,1
1624715061.080935,0,-5,-3,5,0,4,-21,-2,,1
1624715061.084113,-1,-3,-7,4,-2,-1,-32,-6,,2
1624715061.084113,-1,-2,2,22,9,-3,12,-2,,2
1624715061.10352,3,4,1,-65,-17,-12,89,10,,3
1624715061.10352,-3,-4,-5,44,-6,5,-17,0,,3
1624715061.106812,1,-4,16,25,-2,-11,-43,-6,,0
1624715061.106812,2,-9,-11,-13,10,1,10,-1,,0
1624715061.12655,6,16,11,-14,-7,-6,89,4,,1
1624715061.12655,16,9,-1,-8,-3,4,-32,3,,1
1624715061.129279,-3,-3,1,5,2,2,-9,0,,2
1624715061.129279,-2,0,-3,21,6,0,10,2,,2
1624715061.147994,3,10,6,-23,-6,-6,77,12,,3
1624715061.147994,-2,-8,-8,-1,-5,0,-42,-2,,3
1624715061.149821,-1,-4,0,12,-3,-2,-25,-4,,0
1624715061.149821,-3,-4,2,-9,12,3,13,-4,,0
1624715061.170469,0,7,1,-24,-7,-7,90,9,,1
1624715061.170469,0,-2,-3,2,-5,0,-3,-4,,1
1624715061.179987,-1,-5,10,19,3,2,-25,-5,,2
1624715061.179987,-2,-7,-11,-24,2,0,21,-5,,2
1624715061.200206,1,13,17,23,-2,0,84,12,,3
1624715061.200206,-4,3,-6,-16,-15,1,0,-3,,3
1624715061.202263,10,-1,-10,1,8,-1,-69,-5,,0
1624715061.202263,-8,-2,2,18,12,1,17,-4,,0
1624715061.223828,6,10,-5,-36,-1,1,83,14,,1
1624715061.223828,0,-3,12,-10,-2,8,-8,1,,1
1624715061.22701,1,-11,21,14,4,2,-34,1,,2
1624715061.22701,0,-2,0,10,3,1,25,0,,2
1624715061.24579,4,19,-4,-30,-14,-11,71,8,,3
1624715061.24579,-4,-4,1,17,0,-1,-10,-1,,3
1624715061.248272,-3,-10,-2,-1,-3,1,-41,-5,,0
1624715061.248272,0,-8,-1,6,2,-2,28,-6,,0
1624715061.268938,25,13,12,-13,-3,0,54,16,,1
1624715061.268938,-1,-4,-6,-1,-9,-10,-32,-11,,1
1624715061.27218,3,-3,-9,7,2,13,-37,6,,2
1624715061.27218,-6,-1,-1,-5,5,-3,61,-7,,2
1624715061.290244,3,14,10,-7,-5,1,78,14,,3
1624715061.290244,1,5,-6,-9,-1,1,-18,-4,,3
1624715061.2993689,6,0,-14,-6,2,0,-51,-5,,0
1624715061.2993689,2,-2,3,-21,0,-7,28,5,,0
1624715061.3122282,4,12,6,-4,-10,-7,60,12,,1
1624715061.3122282,-2,-2,11,26,-6,-2,-24,-2,,1
1624715061.322195,-4,-8,-14,-24,-9,0,-78,0,,2
1624715061.322195,-5,-4,13,52,18,-5,18,-9,,2
1624715061.3345659,2,11,8,-15,-6,-5,66,10,,3
1624715061.3345659,0,1,12,1,0,2,-16,-5,,3
1624715061.3448699,1,-7,-19,-6,-4,2,-38,-6,,0
1624715061.3448699,0,-6,4,-6,2,-3,30,0,,0
1624715061.366132,3,-10,7,-11,-3,-6,35,12,,1
1624715061.366132,-25,-22,4,-8,-8,-4,-3,-6,,1
1624715061.369438,33,1,-4,15,2,3,-51,-4,,2
1624715061.369438,-21,-3,2,20,8,-1,2,-3,,2
1624715061.388205,6,18,-2,-57,-13,-5,43,5,,3
1624715061.388205,-1,11,0,16,-7,-14,-4,-9,,3
1624715061.39063,0,-1,-3,23,2,3,-69,-4,,0
1624715061.39063,-1,7,-1,7,0,3,-37,-3,,0
1624715061.411829,-1,19,17,-2,-8,-2,41,14,,1
1624715061.411829,0,6,-6,-3,-6,4,-11,0,,1
1624715061.4171178,2,-2,-6,15,7,1,-56,0,,2
1624715061.4171178,-2,3,-3,-21,0,-1,25,-4,,2
1624715061.433436,0,13,13,-38,-11,-8,18,4,,3
1624715061.433436,3,1,-2,-35,-3,1,-1,3,,3
1624715061.436105,0,-5,-7,60,9,2,-51,-4,,0
1624715061.436105,2,2,15,34,20,3,42,-1,,0
1624715061.454633,3,9,10,-16,-9,4,1,14,,1
1624715061.454633,16,-1,2,-15,-13,-18,28,-14,,1
1624715061.4661279,-42,-13,-21,-36,0,13,11,-1,,2
1624715061.4661279,-13,0,27,74,12,-20,2,-18,,2
1624715061.46734,34,22,6,-7,-6,3,-46,24,,3
1624715061.46734,-10,-9,-4,-41,-20,-29,73,-29,,3
1624715061.4684238,-2,-5,-1,-23,3,13,-127,0,,0
1624715061.4684238,-1,-1,-11,-5,-11,-5,26,4,,0
1624715061.479868,-1,13,43,18,-3,5,29,17,,1
1624715061.479868,-4,-2,-15,-35,-3,-21,-52,-8,,1
