timestamp,emg1,emg2,emg3,emg4,emg5,emg6,emg7,emg8,moving,characteristic_num
1624715051.9254699,3,34,-14,-16,3,-5,-10,-1,,0
1624715051.9254699,1,13,22,16,-5,-1,4,18,,0
1624715051.9264278,-26,-1,-20,-16,-6,-3,-7,0,,1
1624715051.9264278,4,-2,-10,1,0,10,23,17,,1
1624715051.9273589,-2,-15,2,-9,-2,-3,27,6,,2
1624715051.9273589,-2,-19,-48,-5,0,-3,-10,-1,,2
1624715051.928117,3,4,-5,-6,-3,0,-17,-4,,3
1624715051.928117,-7,-6,2,4,-1,1,-8,-3,,3
1624715051.9303648,2,28,-10,-11,-4,6,3,8,,1
1624715051.9303648,0,-10,-44,33,-7,-5,-11,-9,,1
1624715051.938585,2,-19,29,14,4,6,25,8,,2
1624715051.938585,-48,-9,-13,-13,-2,-10,-25,-6,,2
1624715051.945151,-3,4,-11,-1,-6,1,-2,0,,3
1624715051.945151,-5,-10,-45,-11,3,-1,19,-1,,3
1624715051.9532108,-3,10,-10,-6,-3,0,25,-1,,0
1624715051.9532108,-1,-4,20,3,2,-6,-27,-5,,0
1624715051.978658,7,11,-8,4,-1,6,-2,9,,1
1624715051.978658,-2,3,10,-3,-2,-5,-7,-10,,1
1624715051.9803221,-1,5,-13,-18,-2,-2,-6,-4,,2
1624715051.9803221,-1,6,12,-15,0,-7,-13,-9,,2
1624715051.990991,-4,3,20,2,-8,2,12,8,,3
1624715051.990991,4,-17,-85,-33,-2,-5,6,10,,3
1624715051.998861,5,2,51,49,-2,-3,7,-1,,0
1624715051.998861,6,-2,-86,-15,4,-5,-18,-5,,0
1624715052.014289,-5,9,61,-7,-3,7,-5,-5,,1
1624715052.014289,-11,-4,-5,-16,-3,-10,21,-13,,1
1624715052.015564,18,-8,-7,0,-4,2,-16,22,,2
1624715052.015564,-27,0,-26,25,4,1,7,-1,,2
1624715052.037293,-5,-2,22,-33,-1,-2,-4,-7,,3
1624715052.037293,5,4,12,-3,3,-7,-10,-9,,3
1624715052.0388749,-4,-9,3,33,4,-5,-6,-5,,0
1624715052.0388749,-4,-7,-34,-8,-6,-6,-2,-4,,0
1624715052.050716,4,6,71,6,0,2,-15,4,,1
1624715052.050716,-7,-1,3,-10,8,0,18,0,,1
1624715052.0590699,-2,-10,-7,-23,-6,-3,3,0,,2
1624715052.0590699,2,-45,-24,-23,-10,-3,-8,-3,,2
1624715052.074805,0,4,40,62,4,3,11,-2,,3
1624715052.074805,-6,111,-9,-14,-2,-1,-22,-3,,3
1624715052.076384,14,9,-5,-3,0,4,-1,39,,0
1624715052.076384,-8,13,-12,-21,-2,5,12,-2,,0
1624715052.0977302,-8,0,26,-7,-12,1,-5,-2,,1
1624715052.0977302,2,26,53,-8,7,2,8,4,,1
1624715052.099327,18,15,6,-19,10,-1,0,0,,2
1624715052.099327,-1,-6,-11,-28,-6,3,11,1,,2
1624715052.111007,46,12,-2,-42,-13,1,-6,8,,3
1624715052.111007,1,-3,13,24,4,2,-4,0,,3
1624715052.1182988,-3,-9,-20,-7,-2,-2,16,3,,0
1624715052.1182988,1,-6,27,0,-1,-5,-24,-12,,0
1624715052.1345139,-4,0,2,-2,-2,4,6,6,,1
1624715052.1345139,-1,-6,-12,-23,-5,-2,-32,-13,,1
1624715052.1358452,7,18,34,8,-2,8,50,33,,2
1624715052.1358452,2,13,-22,12,1,-1,1,-2,,2
1624715052.155992,0,-7,10,-7,-7,-12,-7,-9,,3
1624715052.155992,-14,-2,5,-1,5,7,14,3,,3
1624715052.156786,8,-4,35,39,-2,-1,-21,11,,0
1624715052.156786,-11,-52,-62,-31,-3,-5,5,-12,,0
1624715052.1708028,17,-14,47,23,-1,3,-17,2,,1
1624715052.1708028,-36,-11,-67,27,4,0,-5,-5,,1
1624715052.178923,0,6,19,33,0,1,15,5,,2
1624715052.178923,-11,-128,-39,-19,-7,-3,12,-5,,2
1624715052.194251,0,9,104,11,4,5,-39,-6,,3
1624715052.194251,1,35,90,13,7,7,31,6,,3
1624715052.2033029,3,-5,-58,-23,2,-6,-8,-10,,0
1624715052.2033029,1,-7,76,19,-3,-2,5,3,,0
1624715052.217197,-2,-1,30,-15,-1,5,2,-1,,1
1624715052.217197,-5,-46,-41,-7,-1,-10,-18,-9,,1
1624715052.218752,0,34,7,46,5,2,9,3,,2
1624715052.218752,-5,-10,-9,-5,-2,-1,-2,-7,,2
1624715052.230942,-3,-8,-14,-45,-7,-8,-10,2,,3
1624715052.230942,7,11,85,76,9,5,13,7,,3
1624715052.238971,1,-4,-4,52,0,-1,21,2,,0
1624715052.238971,-5,-22,-2,-16,-8,-11,-46,-5,,0
1624715052.25346,-3,19,12,-6,-3,3,-2,-6,,1
1624715052.25346,-10,-6,-37,-19,0,-1,12,6,,1
1624715052.263238,-10,-128,82,18,2,0,-10,-9,,2
1624715052.263238,0,-31,36,21,7,1,6,2,,2
1624715052.277243,8,-1,12,6,0,1,6,-1,,3
1624715052.277243,-2,2,-33,-22,-8,-3,-7,2,,3
1624715052.2802281,7,13,-11,-11,10,-2,-27,-7,,0
1624715052.2802281,-7,-5,1,19,-4,7,38,8,,0
1624715052.290944,0,127,33,18,1,2,-13,2,,1
1624715052.290944,-3,-3,3,-26,-1,-4,14,5,,1
1624715052.300971,5,13,-7,-22,3,-1,2,-4,,2
1624715052.300971,1,-41,7,9,3,-5,-37,-6,,2
1624715052.313401,7,10,-28,0,2,6,21,8,,3
1624715052.313401,-1,-5,-33,-9,-4,-5,8,20,,3
1624715052.3227232,4,-2,72,17,-3,-5,-6,-5,,0
1624715052.3227232,-16,15,-38,2,0,-1,-4,-10,,0
1624715052.337307,-3,-9,-1,-5,-3,0,1,0,,1
1624715052.337307,24,1,-31,-18,2,-3,-9,1,,1
1624715052.340544,0,-2,-7,20,5,3,2,-8,,2
1624715052.340544,-5,-5,0,-47,-6,-3,-2,-2,,2
1624715052.359732,-8,-11,9,32,-4,-3,-9,0,,3
1624715052.359732,-3,35,33,17,4,0,12,2,,3
1624715052.362985,3,-11,-1,-64,-1,0,-19,-6,,0
1624715052.362985,2,9,89,6,1,5,16,6,,0
1624715052.374109,0,-8,-5,-9,-7,-3,-16,-3,,1
1624715052.374109,-4,7,12,15,3,9,39,16,,1
1624715052.3809228,-3,-15,-27,-34,-6,-1,1,9,,2
1624715052.3809228,2,8,49,35,1,-5,-12,-3,,2
1624715052.397532,-6,-17,-10,3,0,-3,-4,-6,,3
1624715052.397532,-1,-8,-37,-21,-12,-5,-14,0,,3
1624715052.400276,-2,-5,10,-56,0,-2,2,-4,,0
1624715052.400276,-2,-13,15,3,-1,-8,-19,-8,,0
1624715052.419861,6,18,5,27,0,9,8,7,,1
1624715052.419861,-1,-14,12,18,-2,0,35,-6,,1
1624715052.4225202,1,-7,-44,-26,4,-3,-29,-3,,2
1624715052.4225202,0,-3,-35,-28,-4,-2,13,0,,2
1624715052.4344692,2,0,87,95,2,-5,-6,4,,3
1624715052.4344692,5,13,-55,-44,11,0,-5,-1,,3
1624715052.441317,0,8,10,-17,-1,-2,7,2,,0
1624715052.441317,-5,15,-11,44,3,1,19,-3,,0
1624715052.457244,0,-19,3,3,-2,3,-10,2,,1
1624715052.457244,-2,0,-15,-10,1,-3,6,-4,,1
1624715052.46045,2,7,-23,-1,9,1,-12,0,,2
1624715052.46045,-4,-5,23,3,-4,-10,-6,-8,,2
1624715052.4803011,2,5,-6,6,3,16,37,32,,3
1624715052.4803011,3,-5,-17,-14,0,-2,6,-4,,3
1624715052.483039,-6,-11,3,27,-11,-7,-10,-2,,0
1624715052.483039,4,9,30,44,13,-1,-4,2,,0
1624715052.493679,-6,-9,8,2,-6,-2,-6,-5,,1
1624715052.493679,4,-7,-93,-14,-2,-3,11,2,,1
1624715052.501009,-8,-128,6,2,-7,-7,-13,-7,,2
1624715052.501009,-4,4,-1,-35,-3,-1,-3,-1,,2
1624715052.517493,4,13,8,31,4,0,-11,3,,3
1624715052.517493,3,42,-10,-33,3,6,34,5,,3
1624715052.520273,1,-15,0,1,1,3,-7,-3,,0
1624715052.520273,-1,2,-21,6,-4,-4,5,1,,0
1624715052.539597,1,3,118,-27,-4,0,-19,-11,,1
1624715052.539597,3,-4,-30,16,6,3,31,6,,1
1624715052.542597,-1,-3,-4,-10,0,-6,-3,-3,,2
1624715052.542597,-4,-14,-2,8,-2,6,1,-3,,2
1624715052.554819,4,7,22,-2,7,2,-5,-2,,3
1624715052.554819,-4,-6,-40,-54,2,-3,4,0,,3
1624715052.558034,0,9,76,68,1,-5,-26,-10,,0
1624715052.558034,-2,-3,-23,-23,-4,-16,-8,4,,0
1624715052.577624,4,8,33,-13,-12,-5,3,20,,1
1624715052.577624,-2,-13,-40,-32,-9,-1,24,0,,1
1624715052.580835,-2,-15,44,-26,9,4,-15,-1,,2
1624715052.580835,0,12,-62,40,20,0,8,-5,,2
1624715052.600773,5,4,66,-83,3,6,0,2,,3
1624715052.600773,-4,-5,-35,-6,3,-6,-4,-5,,3
1624715052.604192,2,-1,23,-16,-15,-1,5,1,,0
1624715052.604192,1,11,48,-2,6,7,7,0,,0
1624715052.6136801,-9,-13,-28,-17,-25,-6,-6,2,,1
1624715052.6136801,0,3,16,-7,-2,0,-3,-1,,1
1624715052.623232,7,9,-30,9,19,6,14,5,,2
1624715052.623232,-1,-3,-10,-45,-3,-6,-12,-4,,2
1624715052.6368399,-1,-2,-48,40,-13,-17,-7,1,,3
1624715052.6368399,-6,-11,27,10,-24,-38,-6,-12,,3
1624715052.639452,2,0,-17,-43,0,-21,4,5,,0
1624715052.639452,1,-1,-8,23,19,10,13,2,,0
1624715052.659998,2,12,-44,4,16,5,0,0,,1
1624715052.659998,-6,-7,-57,-13,8,-13,-5,-5,,1
1624715052.662652,3,8,50,30,5,7,17,6,,2
1624715052.662652,-2,-7,21,-23,-18,-6,-8,-4,,2
1624715052.67341,-6,-7,14,22,2,15,-16,-8,,3
1624715052.67341,1,-3,41,20,10,5,-27,-4,,3
1624715052.683243,0,1,39,-5,-4,14,24,7,,0
1624715052.683243,1,0,32,-6,5,18,14,3,,0
1624715052.697352,-2,4,7,-37,-8,8,-6,1,,1
1624715052.697352,-7,-4,-25,20,2,-9,-23,-8,,1
1624715052.700638,3,3,-2,-4,-15,4,6,5,,2
1624715052.700638,-2,-5,-1,-3,3,8,-9,0,,2
1624715052.719718,0,31,6,-9,3,-1,-18,-1,,3
1624715052.719718,-3,-8,-49,-1,3,-1,27,1,,3
1624715052.722754,-5,-16,-14,-1,2,5,-5,-4,,0
1624715052.722754,-3,9,19,-3,1,4,10,1,,0
1624715052.733247,-3,2,-47,-8,-6,-5,-9,-3,,1
1624715052.733247,-11,-128,-44,6,-2,-13,9,-8,,1
1624715052.743664,-9,4,-3,2,-1,-4,-3,-2,,2
1624715052.743664,-10,-104,-30,-13,-2,-3,-5,-3,,2
1624715052.757249,-8,-1,-17,7,-1,-1,-3,-2,,3
1624715052.757249,11,18,14,3,6,-4,10,8,,3
1624715052.759818,1,-1,-20,-12,-4,0,5,-2,,0
1624715052.759818,-12,-18,31,4,1,3,-7,-2,,0
1624715052.779558,4,127,-14,0,-3,4,18,6,,1
1624715052.779558,-2,4,-34,-2,3,-8,-4,-4,,1
1624715052.7822561,-6,1,1,5,-1,-2,-8,-6,,2
1624715052.7822561,1,4,4,-42,-6,-3,-5,-4,,2
1624715052.793209,-1,74,-20,40,4,0,-16,-4,,3
1624715052.793209,0,-12,-37,-16,4,-10,17,10,,3
1624715052.803543,-5,-7,-4,-10,-4,2,-1,-1,,0
1624715052.803543,-9,-8,11,-5,1,7,-2,-5,,0
1624715052.8170712,-1,2,2,0,-1,2,-2,-3,,1
1624715052.8170712,-6,-9,-68,-23,2,-13,-4,-7,,1
1624715052.819519,-1,7,39,7,3,1,2,1,,2
1624715052.819519,4,-3,16,4,-1,2,-1,2,,2
1624715052.839605,-1,3,3,10,-3,-1,1,0,,3
1624715052.839605,-3,-1,-38,-22,-2,-9,1,-3,,3
1624715052.842701,1,-1,-4,16,-3,-3,-4,1,,0
1624715052.842701,-2,-1,15,-3,-2,4,-5,1,,0
1624715052.862877,-1,-5,-29,-4,8,4,1,-1,,1
1624715052.862877,3,1,-23,-37,-17,-17,-4,2,,1
1624715052.865865,-3,-3,-3,32,5,6,2,0,,2
1624715052.865865,0,-2,17,-6,4,3,2,-1,,2
1624715052.88446,-3,1,-16,-9,-4,-1,-2,-2,,3
1624715052.88446,-8,-6,-21,21,25,-5,4,-4,,3
1624715052.8868039,-2,-5,-6,-39,-30,-9,1,-5,,0
1624715052.8868039,5,-1,22,-10,-29,-6,-3,5,,0
1624715052.898398,-3,-10,-32,14,1,-2,-2,-2,,1
1624715052.898398,0,-11,-33,-30,-6,-14,-6,-1,,1
1624715052.9073641,9,13,21,-4,15,5,16,7,,2
1624715052.9073641,0,23,-6,48,1,4,-6,1,,2
1624715052.921525,-8,-8,-19,-20,25,0,2,2,,3
1624715052.921525,6,1,-60,-6,-17,-9,-2,-5,,3
1624715052.9233038,5,9,33,-25,5,5,3,3,,0
1624715052.9233038,2,2,-19,-5,-4,3,1,2,,0
1624715052.9445949,1,9,52,5,2,-5,2,0,,1
1624715052.9445949,-6,-22,-52,-17,0,-9,-3,-7,,1
1624715052.9475799,0,127,-2,3,-6,0,-2,0,,2
1624715052.9475799,-8,9,13,-24,-10,2,-6,-3,,2
1624715052.957946,1,2,-10,57,15,-3,8,2,,3
1624715052.957946,-4,-5,-34,-3,5,-4,10,-5,,3
1624715052.968064,-2,-10,2,-12,-3,-1,-2,-4,,0
1624715052.968064,-5,0,9,-8,-7,0,-13,-5,,0
1624715052.9819891,-4,4,-13,-12,-13,-3,3,0,,1
1624715052.9819891,-9,-17,-27,11,-5,-13,-3,-16,,1
1624715052.984957,-2,-24,-2,-7,-14,-7,1,0,,2
1624715052.984957,4,3,17,3,5,10,-2,3,,2
1624715053.0041852,-3,1,-10,0,1,0,10,4,,3
1624715053.0041852,-7,-6,-23,-12,-5,-10,-5,-8,,3
1624715053.0064719,6,99,-4,-3,-6,-1,2,2,,0
1624715053.0064719,0,-6,80,13,2,8,-4,4,,0
1624715053.01806,0,-2,-33,19,6,-4,2,0,,1
1624715053.01806,0,4,-24,-7,3,-7,-1,-3,,1
1624715053.027572,-6,6,21,-2,-2,-3,-2,-1,,2
1624715053.027572,4,10,10,-11,21,12,3,6,,2
1624715053.041963,2,62,-9,-26,-58,-10,2,1,,3
1624715053.041963,-4,14,2,-1,-1,-12,-4,-8,,3
1624715053.044747,0,1,0,-31,-11,-4,0,-1,,0
1624715053.044747,4,27,32,18,8,6,2,7,,0
1624715053.064296,-1,-3,-19,16,-9,-6,-1,-1,,1
1624715053.064296,-4,-5,-12,-19,5,-5,-3,-4,,1
1624715053.067127,-3,-10,-25,-21,-3,0,-6,3,,2
1624715053.067127,0,6,57,69,11,9,3,2,,2
1624715053.077843,-1,6,-20,-8,4,-1,0,2,,3
1624715053.077843,-6,-3,-22,-13,2,-10,-3,-4,,3
1624715053.087599,-5,-7,-5,-16,-1,0,-3,-1,,0
1624715053.087599,-5,-10,26,29,12,12,2,2,,0
1624715053.101985,3,2,-18,-6,7,4,5,-2,,1
1624715053.101985,5,4,18,17,-8,-13,-13,-3,,1
1624715053.10451,0,1,5,1,6,0,3,-1,,2
1624715053.10451,0,3,29,6,0,7,-2,0,,2
1624715053.124885,-8,-4,-22,0,-1,-6,6,-1,,3
1624715053.124885,-2,1,-18,-10,6,-5,-9,-7,,3
1624715053.126909,-3,-6,9,-1,-5,0,-1,-3,,0
1624715053.126909,3,0,23,-2,-10,3,0,4,,0
1624715053.1375911,0,-8,-29,-5,0,-1,-2,-3,,1
1624715053.1375911,4,11,7,1,12,-9,1,0,,1
1624715053.146841,-8,-5,15,-32,-24,-7,-4,-5,,2
1624715053.146841,2,26,25,6,-13,3,-2,1,,2
1624715053.1617181,-4,-22,-36,17,14,3,-3,0,,3
1624715053.1617181,1,7,11,-11,-3,-4,0,-4,,3
1624715053.163866,0,-14,13,-6,14,1,-1,-5,,0
1624715053.163866,9,6,-11,16,2,5,2,3,,0
1624715053.184663,1,-9,-19,-3,2,0,1,2,,1
1624715053.184663,-3,16,18,-4,1,-2,2,-3,,1
1624715053.187256,-10,-4,-5,-8,0,2,-3,0,,2
1624715053.187256,-5,0,20,-7,-8,2,-1,-1,,2
1624715053.198254,-5,-15,-47,-2,-7,-7,-8,-7,,3
1624715053.198254,0,5,29,-17,-1,-3,0,-1,,3
1624715053.207642,12,20,26,-26,20,6,7,6,,0
1624715053.207642,0,-2,2,0,-3,0,0,2,,0
1624715053.221807,-3,-9,11,0,-10,-3,-3,-2,,1
1624715053.221807,0,-7,2,-9,-3,-7,-4,-4,,1
1624715053.224237,0,-6,15,-3,-1,3,2,15,,2
1624715053.224237,5,13,25,-7,-1,7,-1,4,,2
1624715053.244596,-6,30,-9,10,16,1,4,-1,,3
1624715053.244596,7,0,4,-9,0,-7,-2,-3,,3
1624715053.247375,-1,10,17,-13,-6,0,-3,-1,,0
1624715053.247375,6,0,14,22,-2,7,19,10,,0
1624715053.258754,-24,-10,8,3,12,-2,-2,-6,,1
1624715053.258754,6,94,17,-25,-12,2,3,4,,1
1624715053.2681768,7,-18,22,6,-1,5,6,6,,2
1624715053.2681768,26,39,21,57,13,6,2,8,,2
1624715053.282358,22,-3,-30,-15,0,-3,0,3,,3
1624715053.282358,-49,1,21,-3,0,-5,-10,-5,,3
1624715053.2853482,-15,-30,68,-12,-3,-5,-5,-7,,0
1624715053.2853482,38,11,22,-43,-20,6,-1,0,,0
1624715053.3048499,-5,-4,-26,21,31,5,9,1,,1
1624715053.3048499,-2,7,-19,19,8,0,6,18,,1
1624715053.3080692,-10,-14,14,-25,2,0,1,-20,,2
1624715053.3080692,-37,-14,33,4,-7,0,-10,-33,,2
1624715053.318474,20,-24,-48,-2,-16,-8,-25,-18,,3
1624715053.318474,1,12,22,-38,-3,-7,-4,15,,3
1624715053.328022,-9,-60,57,69,10,17,57,64,,0
1624715053.328022,-77,-107,19,-33,11,0,-22,6,,0
1624715053.343552,-81,-17,59,-10,24,11,-49,-126,,1
1624715053.343552,127,89,35,-4,20,-16,71,62,,1
1624715053.3465102,127,112,-30,23,-13,33,77,91,,2
1624715053.3465102,-128,-94,30,2,17,-21,-128,-128,,2
1624715053.364448,-128,-128,-29,39,-2,24,47,8,,3
1624715053.364448,127,96,-63,-128,-91,-128,86,-107,,3
1624715053.367003,127,127,96,127,-72,127,89,127,,0
1624715053.367003,-128,2,1,-60,127,-128,-106,-128,,0
1624715053.377878,-128,4,-128,-88,-128,6,127,127,,1
1624715053.377878,127,-37,-30,-33,127,-128,-15,-21,,1
1624715053.3870468,-128,40,102,42,-44,127,-127,-128,,2
1624715053.3870468,-128,-76,-117,26,50,13,40,-128,,2
1624715053.40254,1,-101,-83,-42,69,-104,76,60,,3
1624715053.40254,81,77,127,24,6,65,92,-69,,3
1624715053.40582,-15,-52,10,5,-60,127,-46,-74,,0
1624715053.40582,-128,-104,103,-128,4,127,-128,-128,,0
1624715053.424843,-3,127,-35,127,127,-128,-128,-98,,1
1624715053.424843,-115,-128,93,-63,-119,111,30,9,,1
1624715053.428041,6,-60,-48,14,-68,-101,35,-3,,2
1624715053.428041,127,127,67,-16,127,-3,-1,-20,,2
1624715053.4383109,96,-15,21,127,10,-128,118,127,,3
1624715053.4383109,-107,-28,20,-128,-9,27,57,-26,,3
1624715053.446601,-17,-54,-100,127,-120,-45,-128,-22,,0
1624715053.446601,-36,-128,64,-104,-70,117,127,127,,0
1624715053.4622521,22,17,-128,89,105,-128,-56,62,,1
1624715053.4622521,-122,-128,127,-28,-45,8,-128,-118,,1
1624715053.4647,127,127,-128,-64,-118,-68,127,113,,2
1624715053.4647,-117,-128,28,-28,127,-14,-38,-7,,2
1624715053.4840598,-8,118,45,118,51,-54,-128,58,,3
1624715053.4840598,-20,13,26,-128,127,127,127,35,,3
1624715053.4921029,127,52,-128,127,-114,37,-128,-65,,0
1624715053.4921029,-97,127,-90,-62,10,-107,-128,-128,,0
1624715053.498506,35,-2,-64,-128,-128,87,85,-128,,1
1624715053.498506,-117,-128,53,127,-14,15,-128,-55,,1
1624715053.507919,-4,-128,-85,-17,127,-62,39,-128,,2
1624715053.507919,127,127,31,-99,-128,44,127,127,,2
1624715053.522075,-121,-128,-70,125,-128,10,127,-128,,3
1624715053.522075,25,127,-17,-128,127,15,-128,-31,,3
1624715053.52511,-30,-128,-8,-8,17,-97,-128,-76,,0
1624715053.52511,-108,127,-119,-79,84,7,127,17,,0
1624715053.544846,-15,16,71,-85,-34,-1,99,-108,,1
1624715053.544846,11,-128,25,79,127,-17,30,-128,,1
1624715053.547913,-127,127,-128,-22,-128,-44,-128,-40,,2
1624715053.547913,114,30,91,-40,127,55,127,86,,2
1624715053.5582201,-14,-128,-128,117,73,-96,-128,37,,3
1624715053.5582201,-128,127,127,20,-128,112,-119,35,,3
1624715053.5680268,67,10,23,10,127,43,82,43,,0
1624715053.5680268,-54,55,-128,-48,39,-100,-128,-128,,0
1624715053.5818062,22,127,-46,-62,-87,42,127,41,,1
1624715053.5818062,127,72,27,-66,62,14,107,127,,1
1624715053.584424,-77,-85,28,105,-74,24,-128,-128,,2
1624715053.584424,-10,74,-29,55,127,-19,-128,-100,,2
1624715053.604672,127,127,-62,-26,-6,40,127,-128,,3
1624715053.604672,73,-128,-22,-35,-46,40,-128,-121,,3
1624715053.607925,-128,-128,-98,-126,-5,-67,127,93,,0
1624715053.607925,44,125,3,-48,91,6,-120,-1,,0
1624715053.61821,127,50,-34,127,-44,-32,11,-10,,1
1624715053.61821,16,-70,-36,-128,46,3,50,127,,1
1624715053.628426,-20,-41,-29,-1,-128,37,-128,-128,,2
1624715053.628426,107,104,32,105,-39,23,14,-33,,2
1624715053.6413782,-18,-81,-24,45,-125,-60,94,127,,3
1624715053.6413782,-102,-60,127,-10,117,19,-62,127,,3
1624715053.648364,18,127,-15,-128,61,-24,127,-61,,0
1624715053.648364,64,126,19,127,-128,-9,93,28,,0
1624715053.6647522,-44,12,-41,-128,-128,4,-128,-114,,1
1624715053.6647522,-26,14,-51,14,-90,35,-122,22,,1
1624715053.667211,60,-62,-22,-2,127,-62,-128,-128,,2
1624715053.667211,56,127,-128,-128,-124,-24,127,127,,2
1624715053.678205,52,127,77,127,127,-37,54,-80,,3
1624715053.678205,-63,-128,-124,-108,127,-23,-128,127,,3
1624715053.688483,-30,127,-100,-128,8,3,-128,-128,,0
1624715053.688483,-128,-128,45,-66,-128,-91,-2,-128,,0
1624715053.702369,89,127,-52,-88,-33,-23,-19,-40,,1
1624715053.702369,63,127,33,127,127,98,127,69,,1
1624715053.705301,-14,-79,-9,-128,-116,-21,-128,-3,,2
1624715053.705301,14,7,-38,127,127,-45,126,-14,,2
1624715053.72477,2,22,-33,-128,-128,-34,-128,-111,,3
1624715053.72477,-8,127,-128,127,127,-29,-38,127,,3
1624715053.728029,47,36,-23,-128,9,82,127,127,,0
1624715053.728029,74,67,-67,91,50,-34,-128,-128,,0
1624715053.738682,70,127,-23,23,-43,-16,127,-128,,1
1624715053.738682,-128,127,-34,-29,-128,40,30,-85,,1
1624715053.748398,127,-13,-23,-10,127,-16,52,127,,2
1624715053.748398,127,127,-25,-48,-128,47,8,34,,2
1624715053.769393,127,127,-90,-40,89,-15,-128,-114,,3
1624715053.769393,-128,-128,109,-128,50,34,-10,127,,3
1624715053.775328,-4,127,25,127,-128,-57,68,-49,,0
1624715053.775328,-18,50,-123,127,14,-13,-128,23,,0
1624715053.784845,-32,-69,6,15,-103,0,127,127,,1
1624715053.784845,26,-63,20,127,127,-40,-128,-128,,1
1624715053.7875478,-37,-15,-63,-122,-128,52,127,127,,2
1624715053.7875478,27,-128,34,-128,-96,-26,-128,-128,,2
1624715053.8070111,12,47,-31,127,127,63,127,127,,3
1624715053.8070111,127,-95,127,-122,-79,-7,-128,127,,3
1624715053.810295,127,-2,-53,127,51,-5,125,127,,0
1624715053.810295,-128,111,96,-3,-35,-21,-128,-102,,0
1624715053.82192,-128,113,-17,94,2,-11,53,-101,,1
1624715053.82192,127,21,25,48,86,-6,-6,52,,1
1624715053.8244212,3,-128,36,-68,-128,15,-57,3,,2
1624715053.8244212,-128,22,-13,-128,-59,20,-120,80,,2
1624715053.8444512,-98,-128,-66,-126,43,-3,71,-15,,3
1624715053.8444512,62,-128,72,127,-107,-2,-79,127,,3
1624715053.84722,-122,68,54,25,108,36,127,-44,,0
1624715053.84722,-1,-25,31,127,24,-44,-128,-128,,0
1624715053.86712,-107,-18,-128,-128,-128,-23,127,39,,1
1624715053.86712,38,-128,80,-54,34,22,0,-32,,1
1624715053.8699589,19,127,-113,127,-87,20,-9,127,,2
1624715053.8699589,-56,108,127,-128,-15,31,127,127,,2
1624715053.8822742,127,127,-128,127,-60,-18,-128,127,,3
1624715053.8822742,70,-128,102,-128,127,-50,36,88,,3
1624715053.885524,-14,-65,-81,-60,-128,41,-128,-128,,0
1624715053.885524,55,-39,127,-101,127,4,127,127,,0
1624715053.904439,-88,-101,-56,127,0,-26,62,-75,,1
1624715053.904439,38,49,-25,-108,93,3,-128,50,,1
1624715053.911019,53,-128,53,-2,-128,-7,126,2,,2
1624715053.911019,-109,-100,-111,-86,-128,-19,127,123,,2
1624715053.927549,-18,-128,101,127,-57,-12,-55,-69,,3
1624715053.927549,-82,-128,-61,-128,127,-27,-128,-128,,3
1624715053.930826,127,-128,-61,127,-128,43,127,127,,0
1624715053.930826,102,127,2,-128,-55,-18,-128,11,,0
1624715053.940678,-16,-128,-59,-101,26,-4,24,5,,1
1624715053.940678,32,-2,-25,-22,-60,-19,-52,-57,,1
1624715053.950711,-52,-82,26,-73,44,10,-29,15,,2
1624715053.950711,-80,-45,-108,-128,-111,-29,-128,-128,,2
1624715053.963852,-19,72,-23,-86,101,26,30,127,,3
1624715053.963852,-59,-128,-12,127,-51,-14,127,61,,3
1624715053.973115,-37,68,18,1,-38,45,-128,-90,,0
1624715053.973115,-48,-128,-128,-128,69,-22,-81,-128,,0
1624715053.987199,-99,-128,89,-128,-51,16,-100,-111,,1
1624715053.987199,127,20,12,127,15,-11,127,26,,1
1624715053.989878,74,127,-16,-128,38,7,-128,110,,2
1624715053.989878,63,-128,-111,-64,8,10,53,53,,2
1624715054.000889,-73,96,62,113,-128,8,-128,-128,,3
1624715054.000889,-77,-128,-30,-19,127,15,127,127,,3
1624715054.010679,127,52,-31,-128,-44,1,60,-5,,0
1624715054.010679,11,-128,6,-23,84,13,-128,-100,,0
1624715054.024744,-56,-38,-95,-35,69,-44,-46,-5,,1
1624715054.024744,-42,-116,-74,127,-128,34,-128,-128,,1
1624715054.027175,127,109,20,6,104,16,127,127,,2
1624715054.027175,-111,-88,-11,-14,127,4,119,-31,,2
1624715054.047286,-17,86,30,-94,-107,9,-128,-128,,3
1624715054.047286,-63,-128,-29,-81,-128,0,127,-41,,3
1624715054.049793,-122,91,99,75,-128,-29,-128,-118,,0
1624715054.049793,108,-128,-112,-2,55,-20,-128,-33,,0
1624715054.060979,127,-60,-92,-86,-73,2,127,89,,1
1624715054.060979,-22,54,31,105,127,-10,-128,-90,,1
1624715054.0696452,-92,-113,13,-128,-128,9,127,25,,2
1624715054.0696452,37,11,127,-71,109,6,66,66,,2
1624715054.0860531,-128,-128,-93,36,-128,-15,-88,-118,,3
1624715054.0860531,127,127,108,-122,-25,10,127,93,,3
1624715054.0886998,-125,-128,-128,-80,2,-6,-128,-32,,0
1624715054.0886998,112,127,115,127,-100,7,53,127,,0
1624715054.107394,-128,-46,15,-128,123,-65,30,-86,,1
1624715054.107394,27,19,-50,-128,-128,-19,-122,126,,1
1624715054.110626,34,127,-60,127,127,-1,-128,-15,,2
1624715054.110626,-128,92,12,127,-92,24,127,-67,,2
1624715054.120817,-128,-128,-11,-101,-98,-20,-128,-128,,3
1624715054.120817,127,127,-45,127,64,15,127,127,,3
1624715054.1313531,17,117,11,99,127,-38,-127,-9,,0
1624715054.1313531,-68,-128,-2,-128,-16,30,42,-82,,0
1624715054.143818,-128,-128,20,104,85,25,127,-128,,1
1624715054.143818,35,-66,-97,-23,-128,-32,127,127,,1
1624715054.1454642,127,127,46,-15,-128,54,127,-34,,2
1624715054.1454642,-112,-63,-34,-128,127,10,-121,-128,,2
1624715054.167093,-107,-128,-122,127,127,-4,-107,-1,,3
1624715054.167093,127,67,-28,-128,-14,6,57,127,,3
1624715054.1700108,0,-7,127,-128,74,12,-128,-27,,0
1624715054.1700108,52,127,-128,127,127,-12,127,127,,0
1624715054.1813738,-15,127,55,52,-47,7,-90,75,,1
1624715054.1813738,-13,-128,-73,-128,103,45,127,-121,,1
1624715054.190571,-49,127,46,-128,87,25,40,20,,2
1624715054.190571,-42,-128,-14,127,5,0,127,-57,,2
1624715054.204716,127,89,86,-66,-12,19,-128,127,,3
1624715054.204716,111,127,-119,58,4,-27,127,127,,3
1624715054.207743,-7,-9,-79,54,-14,36,127,54,,0
1624715054.207743,28,127,-4,61,-22,31,-59,123,,0
1624715054.228404,-81,69,-97,-128,-128,-42,-9,-71,,1
1624715054.228404,66,-50,-4,-60,-50,-13,-128,-42,,1
1624715054.231423,6,-61,28,-128,127,-31,127,121,,2
1624715054.231423,127,127,-59,127,62,-32,-128,24,,2
1624715054.241121,-128,75,112,-106,-114,-7,-77,-128,,3
1624715054.241121,-85,-128,-128,-128,-83,24,83,36,,3
1624715054.2504508,32,107,76,127,-128,28,71,-4,,0
1624715054.2504508,-22,-113,103,-35,102,14,127,-33,,0
1624715054.264694,-87,127,-128,70,24,1,-128,-123,,1
1624715054.264694,84,-11,10,-2,53,-8,127,-16,,1
1624715054.267532,-35,-128,127,15,-25,62,-116,-128,,2
1624715054.267532,-128,-31,73,-103,49,-7,81,-128,,2
1624715054.286741,-66,90,-16,127,-39,-5,85,-128,,3
1624715054.286741,127,-46,-13,-128,-128,9,127,127,,3
1624715054.289545,26,-96,0,22,97,-33,-128,-105,,0
1624715054.289545,40,-128,-6,-128,-128,4,127,127,,0
1624715054.3012228,-83,127,61,127,31,-1,31,57,,1
1624715054.3012228,-97,-128,-96,10,-60,29,-128,-128,,1
1624715054.3107378,62,44,9,-41,-72,23,127,127,,2
1624715054.3107378,-11,5,33,-128,-53,40,-86,-119,,2
1624715054.324661,-76,-119,-128,61,108,2,-43,1,,3
1624715054.324661,-76,-128,-23,100,-122,13,-107,-97,,3
1624715054.3274229,64,93,93,-128,-106,2,-128,49,,0
1624715054.3274229,-73,-128,-128,-75,-6,2,13,63,,0
1624715054.347518,-15,28,-64,101,88,29,84,-128,,1
1624715054.347518,125,-128,88,-83,127,-28,127,48,,1
1624715054.350446,-87,127,56,18,119,6,127,-128,,2
1624715054.350446,-128,-128,-79,-108,3,-1,-128,-128,,2
1624715054.360557,127,127,82,119,48,-51,127,127,,3
1624715054.360557,127,127,22,-91,-111,25,-79,54,,3
1624715054.371138,-128,-128,127,-128,86,-7,-17,-5,,0
1624715054.371138,32,47,-15,127,126,-11,127,32,,0
1624715054.384359,-53,-95,-128,-20,-103,-21,-2,-20,,1
1624715054.384359,40,127,-76,-128,-15,-9,17,-128,,1
1624715054.3867059,98,-85,-37,90,67,17,-70,10,,2
1624715054.3867059,47,-72,-44,126,116,-43,127,113,,2
1624715054.407169,122,59,-40,53,-112,2,-85,-60,,3
1624715054.407169,-109,-97,-16,-103,-60,-17,-109,-82,,3
1624715054.4101288,127,-7,116,-128,-75,11,-128,127,,0
1624715054.4101288,42,-128,-38,51,126,16,127,23,,0
1624715054.420657,-9,103,-34,-128,-128,-34,127,-23,,1
1624715054.420657,127,127,-128,127,127,-17,-30,22,,1
1624715054.4303648,-90,22,70,20,-104,-7,-46,-128,,2
1624715054.4303648,86,59,35,-65,-128,26,127,127,,2
1624715054.444766,49,-37,127,-45,127,-21,-128,-128,,3
1624715054.444766,2,111,-46,109,5,-15,-119,-35,,3
1624715054.447741,101,-128,16,27,-123,28,-22,67,,0
1624715054.447741,-118,127,-17,-49,58,-20,-2,-75,,0
1624715054.4671948,46,127,21,47,-4,22,11,27,,1
1624715054.4671948,60,-66,47,-56,19,7,-94,-4,,1
1624715054.470283,-128,-128,-14,31,70,35,-49,-128,,2
1624715054.470283,-79,31,-73,-128,-104,-10,127,41,,2
1624715054.480791,-27,127,98,-128,-83,70,-128,-95,,3
1624715054.480791,-107,-128,8,55,127,-8,-128,-38,,3
1624715054.4903932,3,77,-12,127,31,-8,79,-110,,0
1624715054.4903932,-26,70,-9,-128,-128,26,-128,10,,0
1624715054.50457,37,-32,-128,127,-27,7,127,-128,,1
1624715054.50457,127,84,30,-128,127,15,127,125,,1
1624715054.507482,-68,127,-15,127,3,-11,127,127,,2
1624715054.507482,-24,95,-48,73,-128,9,-49,17,,2
1624715054.526937,-55,34,40,-74,-99,19,127,101,,3
1624715054.526937,90,41,58,127,127,-4,-103,127,,3
1624715054.5300632,-14,-48,47,-52,-32,-2,-128,-95,,0
1624715054.5300632,-128,-128,-73,-89,-99,-16,-51,9,,0
1624715054.540899,40,-35,53,13,49,65,49,111,,1
1624715054.540899,17,127,-128,109,127,-12,11,20,,1
1624715054.550924,-38,-41,103,111,-128,10,-54,15,,2
1624715054.550924,28,-128,62,112,127,-4,56,127,,2
1624715054.5647411,25,127,27,-128,-128,28,46,12,,3
1624715054.5647411,-73,-128,-108,6,73,-8,-67,-128,,3
1624715054.568007,-17,127,122,41,76,-2,85,37,,0
1624715054.568007,24,127,8,107,-66,-28,-71,-128,,0
1624715054.5870929,-14,-128,-26,-128,-38,20,-33,87,,1
1624715054.5870929,-91,7,-38,5,65,-27,-128,-128,,1
1624715054.589579,-128,-114,-31,-60,-128,14,111,127,,2
1624715054.589579,97,-1,-92,-70,127,-24,127,127,,2
1624715054.6009479,-77,-128,28,40,-121,54,70,-30,,3
1624715054.6009479,18,100,-38,-116,-24,-9,-128,-60,,3
1624715054.610507,122,48,7,52,127,20,127,121,,0
1624715054.610507,-59,-6,0,-33,-89,-5,-128,-123,,0
1624715054.624755,-81,83,-104,61,127,3,71,10,,1
1624715054.624755,18,-47,4,-35,-70,-8,-33,-63,,1
1624715054.6276412,-20,-128,-40,-114,-52,-8,-128,-77,,2
1624715054.6276412,34,127,-26,127,-114,2,127,127,,2
1624715054.64624,52,57,77,-100,27,21,108,-128,,3
1624715054.64624,127,-128,-3,105,-51,-6,127,-14,,3
1624715054.64786,-97,-128,-83,22,-128,0,-76,-41,,0
1624715054.64786,-39,-26,-48,-38,-22,24,-15,11,,0
1624715054.6611662,-12,78,47,127,5,-9,-58,-3,,1
1624715054.6611662,-23,-92,-14,-128,65,9,-109,10,,1
1624715054.6707442,22,127,103,85,127,18,-128,43,,2
1624715054.6707442,-38,-41,127,82,-128,5,28,64,,2
1624715054.683959,-9,-59,-70,-118,0,74,74,-69,,3
1624715054.683959,32,-128,68,-94,98,-8,127,115,,3
1624715054.691169,-20,127,-37,56,100,0,-100,-128,,0
1624715054.691169,-26,127,119,127,16,-39,-128,124,,0
1624715054.707068,27,127,38,24,30,38,57,19,,1
1624715054.707068,21,91,93,6,-4,4,85,-118,,1
1624715054.7100842,-128,-64,20,14,60,8,-109,-63,,2
1624715054.7100842,-43,-52,-59,-128,-79,-1,-94,-122,,2
1624715054.7212281,120,127,112,64,43,12,127,127,,3
1624715054.7212281,127,127,-23,95,-13,-6,116,53,,3
1624715054.7309551,-77,-128,-105,-104,-43,-20,-128,-108,,0
1624715054.7309551,112,17,33,127,107,12,-128,55,,0
1624715054.7449548,-99,-128,-43,21,-128,9,-28,-128,,1
1624715054.7449548,-34,-82,63,85,-128,4,-128,-53,,1
1624715054.7505898,-46,-110,-36,-128,33,9,-104,48,,2
1624715054.7505898,127,127,71,127,127,-12,127,127,,2
1624715054.7674692,-128,-77,127,-63,-63,11,98,73,,3
1624715054.7674692,127,127,-12,-128,-74,40,69,26,,3
1624715054.770281,118,127,-109,33,32,-14,127,127,,0
1624715054.770281,58,5,-64,-39,-75,8,-118,-128,,0
1624715054.789974,-128,-128,63,-25,-15,-13,127,78,,1
1624715054.789974,81,127,-37,2,-81,33,-128,13,,1
1624715054.792973,21,-49,26,-61,93,-18,-5,-121,,2
1624715054.792973,-50,-24,14,23,-59,-23,-22,-7,,2
1624715054.804435,-128,127,-63,-71,-128,-7,127,127,,3
1624715054.804435,110,-61,51,127,-121,7,-128,-128,,3
1624715054.8074281,-51,19,-92,-21,127,-19,-124,15,,0
1624715054.8074281,13,-8,37,32,-128,12,-59,28,,0
1624715054.827103,-128,-79,-25,-114,-128,-5,34,-80,,1
1624715054.827103,127,49,86,127,5,22,-128,127,,1
1624715054.830104,34,-53,70,53,127,-21,124,81,,2
1624715054.830104,-128,-38,-12,-128,-128,-7,-128,127,,2
1624715054.849525,48,-106,-13,-119,-112,30,127,41,,3
1624715054.849525,-128,-87,-34,-59,-11,-2,-70,-128,,3
1624715054.852509,127,83,32,-3,127,5,127,115,,0
1624715054.852509,127,-100,-66,127,19,-13,80,-24,,0
1624715054.864012,42,-67,121,-111,2,8,-31,127,,1
1624715054.864012,-128,127,-110,-128,-128,5,-128,-128,,1
1624715054.873596,-32,-126,35,127,90,-32,21,-89,,2
1624715054.873596,70,127,-128,-20,-128,27,1,90,,2
1624715054.887302,8,-89,-8,-21,127,14,9,-81,,3
1624715054.887302,-128,-128,127,103,-51,8,-42,14,,3
1624715054.890264,-22,127,-114,-81,-99,5,-128,-128,,0
1624715054.890264,-39,-47,44,127,127,-2,125,31,,0
1624715054.9096498,77,127,108,-50,127,66,93,-12,,1
1624715054.9096498,-115,-104,-19,-128,-128,-40,-39,-13,,1
1624715054.912728,84,60,80,21,-42,10,127,112,,2
1624715054.912728,-77,95,-72,-91,74,33,-128,-96,,2
1624715054.92365,48,127,-27,127,-30,26,-128,-100,,3
1624715054.92365,127,-128,57,-37,-46,-36,127,-19,,3
1624715054.933405,-68,-61,-128,-27,30,37,-97,-128,,0
1624715054.933405,127,127,127,-67,-36,-28,4,28,,0
1624715054.9467058,-76,-15,69,102,127,17,49,-128,,1
1624715054.9467058,5,6,-66,-128,-124,7,-128,-103,,1
1624715054.949033,-128,-78,69,127,-20,-3,-128,-128,,2
1624715054.949033,-102,82,-30,-31,127,5,112,127,,2
1624715054.970167,-33,85,6,31,-93,16,33,-60,,3
1624715054.970167,21,-27,-72,51,-128,34,-23,-84,,3
1624715054.973069,-87,-128,8,-91,127,6,-128,-100,,0
1624715054.973069,-58,127,-70,127,-90,-29,-5,-33,,0
1624715054.983069,24,127,85,77,-108,45,115,14,,1
1624715054.983069,-24,52,-128,-104,-75,-33,127,-128,,1
1624715054.993121,80,2,-85,-128,-44,-10,-128,5,,2
1624715054.993121,5,-128,41,127,95,-2,127,127,,2
1624715055.0072892,104,-128,90,-17,127,-12,-128,11,,3
1624715055.0072892,-68,-72,-31,-98,-62,52,-128,40,,3
1624715055.010529,-107,-128,104,-32,-98,16,59,127,,0
1624715055.010529,127,-116,2,26,76,-11,57,127,,0
1624715055.0308611,-128,-3,-37,89,41,-10,32,-128,,1
1624715055.0308611,-32,24,46,-64,94,-14,-107,-87,,1
1624715055.0333672,-102,63,73,-7,-66,-2,101,77,,2
1624715055.0333672,45,-128,67,127,-25,20,-6,46,,2
1624715055.0434098,-42,-55,-39,101,24,-8,-128,-128,,3
1624715055.0434098,90,127,54,-126,-1,7,127,105,,3
1624715055.053211,-62,-2,-13,-102,-128,-10,0,9,,0
1624715055.053211,-47,-60,-95,127,101,-13,94,112,,0
1624715055.067035,17,41,35,-2,90,20,-128,84,,1
1624715055.067035,21,-17,47,-6,46,3,-128,-128,,1
1624715055.070024,127,127,33,-128,59,33,127,83,,2
1624715055.070024,64,-70,-46,-20,34,94,-128,-128,,2
1624715055.089262,-45,-128,25,127,-28,-48,-128,-27,,3
1624715055.089262,114,116,127,-128,14,39,87,-49,,3
1624715055.091707,127,-74,17,-128,-116,-2,127,127,,0
1624715055.091707,-75,-15,127,-12,-67,-6,-48,-23,,0
1624715055.102918,69,-128,93,66,127,39,19,59,,1
1624715055.102918,122,-128,43,-1,-128,8,36,87,,1
1624715055.112716,-128,-128,12,5,12,9,-128,34,,2
1624715055.112716,127,127,-26,-28,-31,6,127,-128,,2
1624715055.127048,70,-128,73,-128,104,21,-70,-8,,3
1624715055.127048,66,127,48,127,-12,-16,-21,-81,,3
1624715055.130044,-128,-128,-98,-128,7,1,39,-45,,0
1624715055.130044,38,127,127,-91,49,2,-18,20,,0
1624715055.150615,2,-63,-19,-29,89,31,51,2,,1
1624715055.150615,22,54,-7,28,-89,16,-128,-31,,1
1624715055.1535842,41,65,22,-128,-128,33,76,-55,,2
1624715055.1535842,-54,14,5,127,106,-43,-1,54,,2
1624715055.163539,-87,43,105,-33,-128,36,-128,-128,,3
1624715055.163539,81,-91,-39,127,127,41,127,127,,3
1624715055.1733499,84,101,-124,-100,-128,-39,127,-24,,0
1624715055.1733499,-72,-76,83,-48,96,27,-38,85,,0
1624715055.187062,-7,-65,-36,-70,79,-43,85,-63,,1
1624715055.187062,-37,-86,7,-128,-108,-20,-45,-35,,1
1624715055.18993,-128,-128,11,127,105,-19,127,127,,2
1624715055.18993,113,72,-70,-128,-128,16,10,-21,,2
1624715055.208735,-22,-68,22,115,-10,26,-128,-14,,3
1624715055.208735,5,101,13,-128,9,38,-104,-40,,3
1624715055.2102342,-57,9,36,127,-4,34,-17,38,,0
1624715055.2102342,-16,-16,-90,47,127,-11,50,20,,0
1624715055.2312279,26,-5,20,127,-128,9,127,6,,1
1624715055.2312279,-22,-15,-54,-124,-128,39,-128,44,,1
1624715055.2326772,-59,1,4,-101,127,-3,47,-128,,2
1624715055.2326772,-3,-128,20,-128,-128,-56,-45,-95,,2
1624715055.2471628,31,-45,49,-92,-9,-15,127,127,,3
1624715055.2471628,-56,-23,80,40,127,27,-49,-3,,3
1624715055.248608,33,52,0,46,35,-21,36,-1,,0
1624715055.248608,-2,-128,23,42,127,7,88,-42,,0
1624715055.2689269,3,97,-59,-43,-75,17,-128,18,,1
1624715055.2689269,12,-43,9,-118,-48,-43,-102,-37,,1
1624715055.270367,-76,-60,30,28,-24,13,127,-59,,2
1624715055.270367,-92,76,-97,-128,127,-33,-128,-128,,2
1624715055.292209,35,32,-33,127,-128,-25,-10,-91,,3
1624715055.292209,-34,60,75,46,127,-6,15,0,,3
1624715055.293649,-51,-97,-102,-128,-128,36,-128,-128,,0
1624715055.293649,-88,-29,50,-13,-48,-38,-38,12,,0
1624715055.3063622,26,78,19,-49,94,12,-7,-27,,1
1624715055.3063622,-40,127,-93,-72,-42,10,-128,-103,,1
1624715055.3078,23,-9,19,127,-31,-43,104,110,,2
1624715055.3078,20,45,0,-128,127,-3,87,127,,2
1624715055.328875,5,-89,6,-28,65,18,127,38,,3
1624715055.328875,-105,-20,-66,-78,-128,-2,-60,-26,,3
1624715055.330296,-47,94,-96,59,38,-31,-104,123,,0
1624715055.330296,-4,-5,-88,53,127,-6,127,127,,0
1624715055.352412,-115,18,-17,127,127,-1,-128,-58,,1
1624715055.352412,-17,-27,68,-128,-128,38,-37,127,,1
1624715055.353567,33,47,1,37,127,-18,15,15,,2
1624715055.353567,69,-128,-48,-126,-128,-13,-106,99,,2
1624715055.366242,98,98,99,78,-11,14,127,127,,3
1624715055.366242,127,44,-128,127,127,0,-32,-123,,3
1624715055.367677,-92,58,119,4,40,-23,117,-18,,0
1624715055.367677,4,-70,-58,-128,-128,15,-128,-128,,0
1624715055.3891299,51,91,-10,-75,127,-13,23,-4,,1
1624715055.3891299,-73,7,-18,127,-128,-5,67,-104,,1
1624715055.390684,41,-51,-92,-128,27,-5,-100,27,,2
1624715055.390684,1,127,-48,17,10,-15,17,-128,,2
1624715055.412508,-52,127,-52,-33,115,1,-19,-128,,3
1624715055.412508,122,30,125,80,-128,-15,91,127,,3
1624715055.413919,-128,-110,-128,-80,127,-42,-128,-128,,0
1624715055.413919,-77,-5,-11,-18,-128,-13,30,-4,,0
1624715055.426464,119,127,56,127,-55,24,118,127,,1
1624715055.426464,17,103,-5,-53,5,18,127,-84,,1
1624715055.4278789,-128,-108,119,93,122,34,-128,-4,,2
1624715055.4278789,127,127,-128,-53,-127,-34,-123,84,,2
1624715055.449016,43,-86,18,56,71,-11,-44,-72,,3
1624715055.449016,-20,85,71,-82,57,20,29,-32,,3
1624715055.450465,-56,-57,89,127,95,-7,-10,-128,,0
1624715055.450465,-5,-128,-128,-128,-128,-7,29,70,,0
1624715055.471245,-35,127,1,127,95,22,-68,-39,,1
1624715055.471245,-23,-9,66,10,88,-3,-27,-92,,1
1624715055.472733,-18,127,117,-88,-128,8,16,127,,2
1624715055.472733,48,-2,20,104,127,1,74,-128,,2
1624715055.48619,55,-62,121,-119,-128,42,-128,-91,,3
1624715055.48619,-4,-46,-50,32,27,-3,61,79,,3
1624715055.4876218,-128,61,-13,-7,-111,3,-77,-60,,0
1624715055.4876218,127,70,-39,-32,43,-20,-36,-87,,0
1624715055.508596,-2,66,-86,-12,-53,12,127,127,,1
1624715055.508596,24,-75,24,127,-128,22,-4,-84,,1
1624715055.509797,-43,113,-71,-18,-62,-25,86,84,,2
1624715055.509797,100,42,14,-14,127,-25,-128,105,,2
1624715055.531625,-49,-1,-63,117,-128,6,127,74,,3
1624715055.531625,-44,-103,25,-128,-27,11,-128,-1,,3
1624715055.533192,-21,-1,-128,-128,-128,8,61,92,,0
1624715055.533192,96,-68,-44,50,-128,-28,127,-10,,0
1624715055.5465338,5,-128,-45,-128,-5,4,-51,1,,1
1624715055.5465338,118,127,127,127,127,18,21,-49,,1
1624715055.548033,46,-91,-83,-106,-56,-39,-128,127,,2
1624715055.548033,-31,-121,-8,26,105,-15,127,-115,,2
1624715055.5691159,-75,-52,28,-109,93,38,-128,-128,,3
1624715055.5691159,127,108,17,-22,-56,33,127,115,,3
1624715055.570463,-84,-39,-31,105,-65,-11,127,-104,,0
1624715055.570463,-128,-128,-8,-51,-76,1,-128,-128,,0
1624715055.591594,127,127,22,108,-60,1,127,127,,1
1624715055.591594,43,-128,12,-23,85,-9,-3,-35,,1
1624715055.593038,-90,23,51,127,81,9,-51,8,,2
1624715055.593038,7,34,-118,43,-128,-22,-87,-117,,2
1624715055.606345,-118,-128,126,127,-25,-9,-51,-128,,3
1624715055.606345,127,-79,54,-96,-59,11,73,99,,3
1624715055.607488,6,-128,-57,54,-78,-16,58,127,,0
1624715055.607488,-128,59,-57,-102,4,-12,-64,78,,0
1624715055.629112,70,-128,-54,12,4,6,-121,72,,1
1624715055.629112,58,20,-27,127,-128,18,-86,99,,1
1624715055.630264,-1,-10,4,-128,43,0,127,-71,,2
1624715055.630264,-56,28,-21,-63,-128,20,-73,-85,,2
1624715055.6515641,-30,127,3,30,18,3,127,-128,,3
1624715055.6515641,-7,127,-30,-22,-9,11,44,42,,3
1624715055.652744,-92,32,-8,4,24,-7,-128,-52,,0
1624715055.652744,-35,127,-116,-11,62,-9,127,-44,,0
1624715055.666564,-128,48,-35,-22,-42,8,-48,59,,1
1624715055.666564,43,37,-6,-19,48,-16,-128,-48,,1
1624715055.667948,-25,23,-40,58,-128,-16,-35,25,,2
1624715055.667948,-26,-20,-73,15,117,16,-84,-128,,2
1624715055.689216,-5,-128,25,-128,-12,12,-14,-111,,3
1624715055.689216,34,127,8,-119,-128,19,127,55,,3
1624715055.690788,-19,-121,-99,127,-56,-14,-128,28,,0
1624715055.690788,57,-42,9,-5,86,-2,127,-28,,0
1624715055.712238,81,127,39,-79,-21,11,-13,-23,,1
1624715055.712238,-128,-128,-39,56,-25,8,-9,-128,,1
1624715055.7138581,56,-99,-28,127,116,-6,-128,-13,,2
1624715055.7138581,-46,-25,27,-20,18,-2,-118,-67,,2
1624715055.7265291,127,32,-8,-42,-59,0,-16,26,,3
1624715055.7265291,-93,-59,-46,-109,57,18,127,105,,3
1624715055.728108,-38,-128,14,127,96,-27,-7,-10,,0
1624715055.728108,127,127,-22,-77,-128,14,50,127,,0
1624715055.749099,-128,-59,11,56,127,2,-20,-70,,1
1624715055.749099,-20,-17,4,-93,-128,-12,42,21,,1
1624715055.750677,126,-19,-23,51,-56,-12,33,107,,2
1624715055.750677,-128,-86,-44,39,89,-4,127,-65,,2
1624715055.772605,-19,-3,102,-128,-46,3,-54,-35,,3
1624715055.772605,-8,-81,-39,48,-128,-3,-78,-11,,3
1624715055.77415,4,127,-16,3,-71,10,-35,-128,,0
1624715055.77415,-9,-31,-128,82,97,6,48,33,,0
1624715055.786419,4,-57,-15,-51,36,-3,55,35,,1
1624715055.786419,-13,-27,60,127,17,-4,-80,-28,,1
1624715055.78764,-23,-128,-1,-120,-128,8,-128,122,,2
1624715055.78764,80,45,-5,68,127,-3,91,73,,2
1624715055.808884,75,-31,-19,-110,-71,-7,-126,-46,,3
1624715055.808884,-85,85,-6,-69,-56,16,0,-128,,3
1624715055.810304,87,-10,-18,42,25,-9,-38,-1,,0
1624715055.810304,3,-128,-70,18,50,27,75,-107,,0
1624715055.832041,-12,64,43,-9,-102,10,117,-128,,1
1624715055.832041,127,127,-20,-41,32,16,-41,10,,1
1624715055.833264,127,-7,33,-19,-128,-10,-49,62,,2
1624715055.833264,-30,-88,4,-31,127,3,41,83,,2
1624715055.8462179,-102,-9,-23,-24,102,5,30,-49,,3
1624715055.8462179,-128,-128,-81,127,-128,-7,18,-46,,3
1624715055.847407,3,-109,-4,73,127,-5,4,-4,,0
1624715055.847407,-9,-117,-128,-128,-96,1,-128,48,,0
1624715055.869357,-17,-77,-93,-128,68,-5,-82,-114,,1
1624715055.869357,-38,-128,127,-90,-128,11,59,-72,,1
1624715055.8710349,56,70,-99,105,73,-1,-128,28,,2
1624715055.8710349,-49,-6,-38,127,127,-7,-128,-128,,2
1624715055.892417,-79,-96,51,-51,-128,-3,80,54,,3
1624715055.892417,127,127,-128,6,120,15,127,-128,,3
1624715055.894026,-82,-128,57,-76,95,-23,-128,-128,,0
1624715055.894026,110,-52,-28,-119,24,21,127,107,,0
1624715055.906328,-66,87,10,5,64,-5,-128,-128,,1
1624715055.906328,56,-28,47,62,-128,3,8,18,,1
1624715055.9080691,-85,-9,7,-18,76,-2,127,-42,,2
1624715055.9080691,-41,104,-8,-128,-128,2,-54,-70,,2
1624715055.928986,13,25,-29,37,99,-4,66,-2,,3
1624715055.928986,-22,-128,42,127,-52,3,23,-9,,3
1624715055.93042,66,61,42,-128,127,-1,70,22,,0
1624715055.93042,-28,95,54,43,-106,5,-59,-12,,0
1624715055.952138,127,64,39,127,21,-5,57,7,,1
1624715055.952138,-85,-128,62,-128,33,2,-128,-59,,1
1624715055.9537652,106,127,-19,127,127,3,-37,-5,,2
1624715055.9537652,-86,10,-76,-128,-70,1,96,-48,,2
1624715055.966212,-92,-128,57,127,8,4,10,-49,,3
1624715055.966212,-128,-128,-83,-128,19,-3,127,112,,3
1624715055.967633,70,84,-89,32,-77,3,127,71,,0
1624715055.967633,-38,127,96,55,-2,-5,26,-6,,0
1624715055.988956,-4,-45,92,-46,8,0,-128,-80,,1
1624715055.988956,-128,-45,41,4,127,2,127,-8,,1
1624715055.9903722,11,-83,-110,-35,-87,-5,127,127,,2
1624715055.9903722,-61,-128,127,75,89,-1,-61,-102,,2
1624715056.012207,87,127,-87,-55,-56,2,-128,-16,,3
1624715056.012207,76,24,-48,-128,26,1,-112,-46,,3
1624715056.014247,-70,-128,-73,91,-29,1,37,-21,,0
1624715056.014247,116,114,-84,127,-108,0,-31,-85,,0
1624715056.0265899,-14,73,127,127,65,-7,112,23,,1
1624715056.0265899,-58,-125,-65,-128,-80,-1,-98,32,,1
1624715056.027771,-41,127,0,127,10,3,-12,63,,2
1624715056.027771,89,-128,36,-55,127,2,67,127,,2
1624715056.0489368,-34,-73,0,127,-120,-1,-128,-101,,3
1624715056.0489368,57,127,-66,-71,50,0,127,-40,,3
1624715056.050399,-122,-113,43,-128,-66,0,127,-83,,0
1624715056.050399,-12,-25,58,22,-88,7,-128,-128,,0
1624715056.071902,-47,127,1,-3,42,-9,43,55,,1
1624715056.071902,37,1,109,-89,-128,3,68,-59,,1
1624715056.073337,28,116,1,-64,13,1,-128,53,,2
1624715056.073337,-20,-124,-98,-76,-105,-1,97,-79,,2
1624715056.0862458,108,127,76,-128,127,-1,-7,39,,3
1624715056.0862458,-113,-35,33,127,-119,-1,-50,-83,,3
1624715056.0876968,-16,-55,-58,82,-22,0,-27,2,,0
1624715056.0876968,-51,-71,59,-24,38,0,-46,14,,0
1624715056.109302,-42,-128,-47,-128,-128,-3,-128,-13,,1
1624715056.109302,106,127,74,38,-110,-5,-49,67,,1
1624715056.110739,60,-80,25,-108,127,-5,-108,-34,,2
1624715056.110739,-34,-116,84,-128,-20,1,127,-59,,2
1624715056.132947,15,127,127,127,127,6,-92,118,,3
1624715056.132947,70,-48,-47,-114,-123,0,107,-30,,3
1624715056.1343539,-9,-39,-50,27,127,7,-128,-128,,0
1624715056.1343539,84,64,29,-72,117,4,63,34,,0
1624715056.146274,127,127,67,54,-67,3,125,91,,1
1624715056.146274,92,66,63,-19,69,7,-74,-28,,1
1624715056.147475,-27,127,20,99,47,-3,-75,-57,,2
1624715056.147475,113,5,-8,-5,-108,0,-87,-68,,2
1624715056.168745,-128,-26,25,9,-128,4,-6,21,,3
1624715056.168745,26,-45,-30,1,127,-4,-13,-27,,3
1624715056.1702552,111,109,84,-10,-103,5,33,-55,,0
1624715056.1702552,6,-33,31,-128,-128,-3,7,-35,,0
1624715056.192157,-44,-128,-19,-79,127,-1,-42,-54,,1
1624715056.192157,-1,127,64,127,86,-3,11,-22,,1
1624715056.193781,-62,84,-14,-128,-53,3,-128,-66,,2
1624715056.193781,67,-128,127,127,127,3,-96,-5,,2
1624715056.206589,-6,78,-34,4,-66,4,-16,-25,,3
1624715056.206589,-71,-46,5,-128,-128,-2,127,9,,3
1624715056.208014,93,22,-12,67,99,-3,-44,-123,,0
1624715056.208014,1,-128,111,45,-77,2,-51,99,,0
1624715056.2289999,-4,127,65,25,-15,-2,-36,-101,,1
1624715056.2289999,120,117,9,-128,127,5,73,-29,,1
1624715056.2304032,-125,-113,-24,127,65,0,-128,-120,,2
1624715056.2304032,127,-128,-7,-74,-69,-1,31,-3,,2
1624715056.252167,58,111,37,-128,-128,0,-7,16,,3
1624715056.252167,-10,-25,49,127,127,7,-32,13,,3
1624715056.253645,96,-67,21,-108,-128,-9,72,89,,0
1624715056.253645,30,-8,-10,-30,127,2,-5,-12,,0
1624715056.2663639,108,127,-2,-104,-128,-3,9,-12,,1
1624715056.2663639,-22,-4,121,127,127,-6,89,88,,1
1624715056.267692,127,-9,30,-102,-116,-2,-79,13,,2
1624715056.267692,44,126,80,-45,26,3,60,-23,,2
1624715056.2897742,-111,-84,-82,127,-86,3,-128,-77,,3
1624715056.2897742,18,127,55,32,-13,2,-28,91,,3
1624715056.2911942,23,116,127,116,90,0,-65,-97,,0
1624715056.2911942,-27,-92,-82,-90,-128,13,-128,-59,,0
1624715056.311921,-37,-46,-27,-33,-40,4,116,102,,1
1624715056.311921,127,127,14,-84,33,3,-47,-128,,1
1624715056.31336,-52,65,-128,-37,-128,-10,-61,107,,2
1624715056.31336,127,-47,2,-98,54,0,127,38,,2
1624715056.326119,-86,20,88,112,69,2,-5,65,,3
1624715056.326119,-71,39,-92,-104,-128,3,-39,-128,,3
1624715056.327738,55,37,-15,127,127,9,10,3,,0
1624715056.327738,-63,-17,75,-85,-40,-1,-40,-8,,0
1624715056.348695,-9,-102,-64,-128,-128,2,26,-32,,1
1624715056.348695,-6,116,62,127,72,-2,8,-9,,1
1624715056.3501031,107,36,-5,-9,-66,-4,-87,-24,,2
1624715056.3501031,-6,16,-14,102,-6,-1,15,15,,2
1624715056.3723788,-51,-128,88,-128,-44,-6,-75,-39,,3
1624715056.3723788,28,127,-83,-44,-17,-6,45,17,,3
1624715056.373962,-4,16,2,99,-128,-1,-128,-53,,0
1624715056.373962,-128,-44,-70,-29,127,8,-51,-128,,0
1624715056.385768,127,74,-86,15,-77,0,-76,17,,1
1624715056.385768,96,113,51,0,-128,-5,127,113,,1
1624715056.3940852,79,-34,-128,-50,127,-2,-80,-114,,2
1624715056.3940852,-40,-43,69,-68,42,0,-128,-128,,2
1624715056.409091,127,127,-103,20,-92,4,127,83,,3
1624715056.409091,-22,-59,11,-4,127,-3,127,21,,3
1624715056.410512,-128,-4,54,-128,-128,-8,-14,-25,,0
1624715056.410512,-47,-128,-45,127,-95,4,-128,-47,,0
1624715056.432225,18,86,-35,-128,78,-4,127,127,,1
1624715056.432225,24,34,67,34,115,1,-2,34,,1
1624715056.433743,39,127,27,44,127,-5,127,76,,2
1624715056.433743,8,-71,-84,-29,-128,-1,-128,-118,,2
1624715056.454893,-32,-1,4,-128,-110,-1,127,48,,3
1624715056.454893,-15,127,62,24,122,0,106,-13,,3
1624715056.456206,-36,54,-72,105,73,-2,41,57,,0
1624715056.456206,79,85,96,-17,40,-11,107,127,,0
1624715056.469033,-74,70,-42,-128,-35,4,-128,-128,,1
1624715056.469033,-34,-5,-17,-62,-128,-6,127,127,,1
1624715056.470411,-67,117,63,123,127,2,-53,1,,2
1624715056.470411,61,127,30,51,-88,-4,-69,-128,,2
1624715056.4920168,20,-22,-74,-92,-45,0,-14,25,,3
1624715056.4920168,86,2,53,37,107,-5,127,-1,,3
1624715056.4935648,7,8,122,16,-95,1,24,21,,0
1624715056.4935648,-16,116,33,-1,127,-1,-90,-4,,0
1624715056.514675,-54,-100,-96,18,-128,2,127,22,,1
1624715056.514675,88,83,-6,-64,-128,-5,10,-36,,1
1624715056.5162702,14,20,10,127,105,2,-128,-52,,2
1624715056.5162702,17,-75,1,22,-72,-3,120,-89,,2
1624715056.5292969,-128,-6,31,-128,10,2,54,-7,,3
1624715056.5292969,-8,-109,-91,-88,39,-3,-54,-27,,3
1624715056.530737,-48,-95,63,127,127,6,98,-3,,0
1624715056.530737,90,60,20,-51,-23,4,23,-29,,0
1624715056.5523598,23,127,-35,37,-60,-5,127,127,,1
1624715056.5523598,-2,13,-52,13,126,3,-73,-128,,1
1624715056.5536761,-88,-128,46,-112,-128,-3,-37,-31,,2
1624715056.5536761,-71,127,101,65,-128,-2,68,127,,2
1624715056.574919,-56,-101,-67,127,127,5,6,-11,,3
1624715056.574919,127,-88,28,4,-71,-4,49,127,,3
1624715056.576222,-86,-21,37,20,78,-2,17,-77,,0
1624715056.576222,17,-86,-22,-104,49,1,-128,-86,,0
1624715056.588726,-6,-3,58,-33,-128,-5,95,-19,,1
1624715056.588726,-47,127,-47,-105,-110,0,-60,10,,1
1624715056.590132,-50,-69,105,78,1,2,127,-12,,2
1624715056.590132,24,127,-115,-36,-32,-1,-128,-4,,2
1624715056.612056,17,32,49,-64,-128,5,-85,-35,,3
1624715056.612056,15,127,-7,127,-75,1,-128,-54,,3
1624715056.613523,18,-31,-39,-103,-99,-8,-128,15,,0
1624715056.613523,-7,44,-112,-100,127,-1,127,81,,0
1624715056.635031,-41,-128,71,-29,-114,-1,-56,-84,,1
1624715056.635031,127,1,-95,67,-20,-7,127,127,,1
1624715056.6364968,89,-128,8,83,127,-3,127,63,,2
1624715056.6364968,-14,32,-39,-37,127,-1,-128,-73,,2
1624715056.649462,-105,-128,29,-56,-112,-1,127,-44,,3
1624715056.649462,-96,-68,39,32,-61,-1,127,-66,,3
1624715056.650996,15,-128,101,-82,24,-7,64,20,,0
1624715056.650996,-41,-51,-67,18,127,-4,-128,-128,,0
1624715056.671833,23,-106,101,127,-128,6,0,48,,1
1624715056.671833,-3,1,-113,-128,108,-2,-87,-90,,1
1624715056.673142,-17,50,28,4,11,4,37,39,,2
1624715056.673142,-20,90,82,-46,-11,-2,-44,2,,2
1624715056.6950028,-19,-98,-72,-128,35,-2,-24,0,,3
1624715056.6950028,-25,127,17,127,-18,4,-75,15,,3
1624715056.6964219,39,-3,9,-37,-101,-4,-40,-64,,0
1624715056.6964219,-2,86,-29,-127,-45,3,65,-76,,0
1624715056.708958,-71,-85,46,25,26,-8,-71,40,,1
1624715056.708958,-18,-128,38,-55,-55,-1,127,-4,,1
1624715056.7105122,75,127,-128,-67,29,8,70,-122,,2
1624715056.7105122,78,-20,127,67,-128,1,-79,46,,2
1624715056.732105,43,-128,67,3,-128,-12,-62,-78,,3
1624715056.732105,-40,37,-59,25,127,0,119,20,,3
1624715056.733558,-11,43,73,-11,-112,-2,37,10,,0
1624715056.733558,103,-128,14,-60,-16,-1,-128,-38,,0
1624715056.753997,37,75,-128,122,47,3,-52,1,,1
1624715056.753997,-39,69,8,-78,111,-1,21,-99,,1
1624715056.7615712,43,90,-81,96,127,-1,34,18,,2
1624715056.7615712,-128,-113,6,-32,-125,-8,-128,-38,,2
1624715056.769084,10,49,82,-25,-128,-3,-128,-29,,3
1624715056.769084,9,-25,-98,7,127,-1,67,19,,3
1624715056.770499,-2,-40,-83,-74,-128,2,7,-37,,0
1624715056.770499,-51,100,127,127,47,5,-93,-56,,0
1624715056.7919512,63,24,-72,-14,0,-5,83,-5,,1
1624715056.7919512,-25,2,33,-45,127,-1,127,20,,1
1624715056.793408,127,-128,-45,11,12,-8,-128,49,,2
1624715056.793408,3,42,-17,-31,-31,-2,127,127,,2
1624715056.81493,-5,93,22,-17,127,-7,91,-45,,3
1624715056.81493,90,-128,0,26,-114,4,106,41,,3
1624715056.816235,20,123,-30,35,65,-2,42,-39,,0
1624715056.816235,6,-111,30,-96,89,0,35,-3,,0
1624715056.829098,-23,84,-28,-55,-19,4,-74,-52,,1
1624715056.829098,92,79,47,65,57,-3,-128,-121,,1
1624715056.830564,-29,-128,-91,-66,41,3,69,58,,2
1624715056.830564,-33,-46,8,42,101,2,-48,-31,,2
1624715056.852087,-45,-116,-21,-128,-128,2,22,-16,,3
1624715056.852087,78,82,36,127,127,1,4,49,,3
1624715056.853468,8,2,12,-100,91,-5,30,30,,0
1624715056.853468,-35,-128,-43,46,101,-4,-47,-111,,0
1624715056.874367,105,89,-59,-107,-128,15,23,127,,1
1624715056.874367,-18,-31,6,-128,-78,-2,31,-20,,1
1624715056.875684,9,-91,-57,127,11,1,127,-57,,2
1624715056.875684,83,86,7,-128,-128,-4,93,56,,2
1624715056.888902,18,1,61,119,67,6,54,-88,,3
1624715056.888902,-77,-128,-9,-45,110,-1,17,57,,3
1624715056.890099,-128,62,-57,-8,-100,2,-128,-46,,0
1624715056.890099,98,127,22,38,127,2,127,127,,0
1624715056.91262,-5,-90,-2,20,-50,0,-128,-88,,1
1624715056.91262,-78,-23,79,-103,-128,0,127,-48,,1
1624715056.9141681,57,25,-67,18,127,4,-128,-72,,2
1624715056.9141681,-50,-2,-27,-25,-58,1,9,-12,,2
1624715056.934995,16,127,78,-60,-38,-6,127,41,,3
1624715056.934995,-21,-128,-15,14,-17,-6,107,-35,,3
1624715056.936428,61,-83,-47,-59,-128,-5,-81,-21,,0
1624715056.936428,98,127,-14,27,125,-4,-17,32,,0
1624715056.948848,-108,-42,127,71,127,0,87,104,,1
1624715056.948848,-49,-50,-56,-9,-48,-9,127,127,,1
1624715056.950017,31,-128,127,62,89,-1,117,-3,,2
1624715056.950017,-26,127,42,-87,-128,6,-128,-87,,2
1624715056.971977,-10,41,-68,-75,127,-1,127,-116,,3
1624715056.971977,-80,-128,-12,-40,-30,-3,-51,49,,3
1624715056.973563,-128,-128,15,-48,-118,-2,63,61,,0
1624715056.973563,127,24,-80,37,-118,3,-96,-16,,0
1624715056.994538,26,68,119,31,127,-2,85,-18,,1
1624715056.994538,44,-16,92,127,80,5,-29,-64,,1
1624715056.996039,9,65,-11,-33,-128,-8,127,13,,2
1624715056.996039,-55,-128,-38,94,127,-3,-128,17,,2
1624715057.008358,-46,25,127,-52,-128,-3,95,-80,,3
1624715057.008358,25,-128,-106,-111,50,12,66,28,,3
1624715057.009331,73,-128,-76,-6,-128,-5,-128,-101,,0
1624715057.009331,-60,80,115,-12,127,13,127,-47,,0
1624715057.031202,99,-18,55,15,-128,11,-16,127,,1
1624715057.031202,68,24,-128,-128,-26,1,-90,-55,,1
1624715057.031756,-10,127,127,52,-128,-2,32,77,,2
1624715057.031756,39,-35,-54,-15,24,-3,-107,3,,2
1624715057.0538502,-128,13,124,127,127,-2,69,30,,3
1624715057.0538502,48,18,-46,-38,-44,9,-63,-119,,3
1624715057.0546958,126,35,22,127,127,-6,-128,127,,0
1624715057.0546958,-118,-128,-54,-51,-128,8,127,-21,,0
1624715057.0683908,51,-35,40,-128,-128,1,-13,17,,1
1624715057.0683908,-47,-112,-21,-61,90,-2,-128,-128,,1
1624715057.06932,14,-11,-53,76,127,-3,31,33,,2
1624715057.06932,116,127,100,114,127,2,87,56,,2
1624715057.091595,-29,-125,-38,113,25,-1,-128,-19,,3
1624715057.091595,-62,-88,-73,-128,-128,0,62,11,,3
1624715057.092937,-47,-91,-119,-128,-128,-10,-83,-58,,0
1624715057.092937,-104,69,33,-40,127,6,38,-38,,0
1624715057.114306,82,-60,-29,127,34,-11,127,54,,1
1624715057.114306,-41,-128,41,-45,-128,6,-128,-6,,1
1624715057.115586,127,127,-110,-31,127,-1,51,43,,2
1624715057.115586,17,127,27,-80,-6,0,127,94,,2
1624715057.1290822,89,127,127,25,-89,2,60,127,,3
1624715057.1290822,5,-94,-76,-55,-128,1,-128,-10,,3
1624715057.1304882,-60,127,-26,35,-77,0,-120,-80,,0
1624715057.1304882,-35,-128,-33,-62,85,-1,-64,2,,0
1624715057.15218,9,127,79,123,-42,3,72,16,,1
1624715057.15218,32,-107,-79,-100,-88,1,-69,-27,,1
1624715057.153595,-86,6,-80,-13,127,2,-40,-20,,2
1624715057.153595,-80,-51,16,-35,-128,-3,-91,33,,2
1624715057.173524,-29,-85,127,126,127,1,2,86,,3
1624715057.173524,-28,-128,-69,-29,-128,2,-23,-128,,3
1624715057.174291,9,-128,-128,-128,89,-8,127,112,,0
1624715057.174291,-72,127,12,-24,54,3,40,70,,0
1624715057.18857,-15,-55,23,127,-65,2,-128,-128,,1
1624715057.18857,-16,-28,-22,56,-57,-1,-128,-128,,1
1624715057.1898801,-20,-128,30,-128,127,-4,127,121,,2
1624715057.1898801,127,60,32,127,-128,1,127,19,,2
1624715057.212111,-66,-105,66,-77,-57,6,-115,-42,,3
1624715057.212111,68,5,42,-51,127,-5,127,127,,3
1624715057.213661,-81,30,-114,-11,-94,0,-63,-37,,0
1624715057.213661,29,-105,127,127,-128,2,23,-23,,0
1624715057.234564,4,127,-67,-3,127,-4,99,74,,1
1624715057.234564,31,-25,9,-86,-126,5,-73,-44,,1
1624715057.236224,-128,-128,-21,-88,-128,-4,-64,-128,,2
1624715057.236224,-55,-57,44,50,127,5,57,-67,,2
1624715057.248876,127,127,21,-21,-128,5,127,-24,,3
1624715057.248876,73,44,88,120,117,-6,121,85,,3
1624715057.250454,-128,21,-98,-47,-34,-1,64,-38,,0
1624715057.250454,3,-49,-16,-112,-16,5,-128,-128,,0
1624715057.272288,61,94,64,-9,-10,-2,101,127,,1
1624715057.272288,-27,127,36,7,-128,-2,-128,64,,1
1624715057.273828,-23,-128,94,49,127,-2,-26,-34,,2
1624715057.273828,-60,127,-62,-45,-128,-2,73,34,,2
1624715057.294822,28,-128,7,-66,-72,1,-128,26,,3
1624715057.294822,-42,35,65,-128,127,-2,61,-43,,3
1624715057.296798,-37,-65,-47,127,-106,3,-24,24,,0
1624715057.296798,127,127,55,86,-103,-2,127,95,,0
1624715057.308584,-54,96,12,-72,10,4,-115,-106,,1
1624715057.308584,125,-7,-128,-43,125,2,127,37,,1
1624715057.316489,-82,-66,127,42,-32,-5,-128,-128,,2
1624715057.316489,11,-39,-53,-82,75,15,-128,-128,,2
1624715057.332206,1,-46,-11,86,-105,5,127,39,,3
1624715057.332206,51,127,49,93,127,-2,-108,-28,,3
1624715057.333675,-128,-38,-5,-43,-44,-1,-128,-128,,0
1624715057.333675,127,-60,8,47,37,-4,127,127,,0
1624715057.354938,-45,-128,61,-83,127,-1,127,12,,1
1624715057.354938,10,7,20,122,-128,-2,-128,-102,,1
1624715057.357698,8,-84,-61,-15,-25,4,2,-16,,2
1624715057.357698,-5,61,66,67,-25,-2,72,44,,2
1624715057.368431,35,-29,26,34,21,8,-85,18,,3
1624715057.368431,-15,-13,-20,-71,127,-9,72,29,,3
1624715057.378228,-23,-1,-3,35,-127,1,127,11,,0
1624715057.378228,12,-128,57,-76,-7,0,-128,-21,,0
1624715057.391853,-20,-128,-71,5,99,7,94,-105,,1
1624715057.391853,118,127,4,-63,-128,-6,-128,12,,1
1624715057.3946738,-18,-88,53,-128,-14,-7,127,88,,2
1624715057.3946738,49,127,28,-7,127,2,-34,-128,,2
1624715057.415162,103,-118,127,-4,-17,-5,127,127,,3
1624715057.415162,-103,-128,-79,80,-62,4,-53,-113,,3
1624715057.418134,90,-28,67,-46,79,0,127,22,,0
1624715057.418134,-77,-128,33,115,-56,1,-103,-71,,0
1624715057.428533,-5,12,18,-71,-128,0,-72,58,,1
1624715057.428533,14,127,24,54,127,0,-15,127,,1
1624715057.4377759,-41,-128,65,-20,-94,-1,-30,89,,2
1624715057.4377759,-67,13,-17,21,-83,2,-128,-12,,2
1624715057.451852,-20,-61,43,-127,127,3,-87,-48,,3
1624715057.451852,-86,75,32,127,52,-6,127,-128,,3
1624715057.454572,-97,-128,84,27,-21,6,-128,-22,,0
1624715057.454572,16,127,-74,17,-128,-8,-128,38,,0
1624715057.474401,7,-56,67,-43,127,3,127,58,,1
1624715057.474401,-128,-90,-82,-127,-128,3,-103,-128,,1
1624715057.477164,47,10,49,-42,81,6,78,37,,2
1624715057.477164,72,73,-31,-30,107,2,11,93,,2
1624715057.488738,6,127,-70,106,127,-1,105,18,,3
1624715057.488738,0,-57,68,-10,-8,-3,-114,98,,3
1624715057.4979048,19,-101,-69,-64,-21,-3,116,78,,0
1624715057.4979048,-5,127,-11,79,2,3,56,-121,,0
1624715057.5124412,127,-6,25,-31,-85,0,-128,36,,1
1624715057.5124412,43,127,-14,20,127,9,127,55,,1
1624715057.515202,-73,-36,-29,-64,-128,6,-128,-43,,2
1624715057.515202,44,127,57,-69,-128,-2,17,3,,2
1624715057.534901,-64,27,-15,-10,127,-2,94,-20,,3
1624715057.534901,-38,40,27,111,-128,-2,-128,-15,,3
1624715057.53778,-3,-37,87,-18,-61,0,127,127,,0
1624715057.53778,-61,-14,-3,-16,-108,-4,127,6,,0
1624715057.557086,41,127,10,-65,108,4,-11,-32,,1
1624715057.557086,63,-89,-48,73,-89,-3,59,127,,1
1624715057.5598452,-89,-103,13,-82,127,1,-1,-34,,2
1624715057.5598452,24,-128,-79,16,-48,0,89,-26,,2
1624715057.572395,127,127,37,-128,-128,-6,67,127,,3
1624715057.572395,-128,-40,29,107,23,-8,-77,-76,,3
1624715057.575167,-33,107,102,50,32,5,-128,20,,0
1624715057.575167,127,127,-91,-75,-106,1,53,19,,0
1624715057.594848,-69,-13,-27,17,27,-4,61,-12,,1
1624715057.594848,19,127,-4,16,7,-4,-30,14,,1
1624715057.597562,-97,-89,-5,49,-128,0,-128,-46,,2
1624715057.597562,11,80,-63,-13,117,0,87,12,,2
1624715057.616276,-76,-68,63,68,-112,7,-128,-40,,3
1624715057.616276,3,14,-68,2,127,-6,127,-13,,3
1624715057.6179688,-56,-67,14,-108,-86,-6,-48,-128,,0
1624715057.6179688,24,-66,114,127,-128,10,-65,31,,0
1624715057.631129,105,23,120,-41,127,3,-60,-72,,1
1624715057.631129,-128,-17,-28,127,94,-1,127,24,,1
1624715057.632582,25,-21,20,-128,-128,-2,-128,-48,,2
1624715057.632582,-13,-17,58,-57,51,2,16,1,,2
1624715057.653667,5,-128,-72,0,-128,-2,-90,-8,,3
1624715057.653667,-50,127,-101,94,22,-1,-128,-24,,3
1624715057.65518,56,50,-16,-128,-71,4,-128,-45,,0
1624715057.65518,97,127,127,127,-13,-3,-48,26,,0
1624715057.677127,63,127,-7,-128,14,9,76,-58,,1
1624715057.677127,-43,-28,-38,73,-128,0,6,19,,1
1624715057.679314,-24,52,64,38,127,4,-85,20,,2
1624715057.679314,-25,34,18,-88,-128,-7,-43,-63,,2
1624715057.692411,71,-19,2,-9,127,-1,104,-13,,3
1624715057.692411,-69,-97,42,-11,-128,0,13,9,,3
1624715057.695153,75,75,1,-21,46,-2,40,-69,,0
1624715057.695153,31,-7,-32,-5,-41,5,41,27,,0
1624715057.714863,24,127,-49,76,32,1,12,-38,,1
1624715057.714863,-109,-4,-31,-111,36,0,-82,-25,,1
1624715057.71761,22,-128,8,-24,-128,2,81,-46,,2
1624715057.71761,-14,-24,-61,-11,125,-1,-128,-61,,2
1624715057.737504,80,127,-10,127,127,-5,91,-11,,3
1624715057.737504,56,-85,-80,-57,-128,7,15,-128,,3
1624715057.7402701,0,-128,39,-128,-118,0,-128,127,,0
1624715057.7402701,-49,78,-2,79,-1,-8,-124,-128,,0
1624715057.7519739,-128,-26,-64,-48,-21,4,65,24,,1
1624715057.7519739,24,98,35,21,82,0,-6,-2,,1
1624715057.754837,-56,-102,-18,-35,-88,4,-14,-29,,2
1624715057.754837,-120,-22,61,70,-128,-7,-128,-57,,2
1624715057.774407,59,-3,-33,-22,79,-4,127,127,,3
1624715057.774407,30,127,101,127,127,1,-46,-3,,3
1624715057.7772071,54,56,-122,-28,65,-3,21,127,,0
1624715057.7772071,-66,-43,24,89,-13,5,11,24,,0
1624715057.796916,-54,-54,-88,-106,48,6,75,0,,1
1624715057.796916,-9,-100,-35,-29,-29,-3,-8,-128,,1
1624715057.799859,-55,-125,-17,17,-128,5,-128,-110,,2
1624715057.799859,28,127,-54,-128,35,-1,127,68,,2
1624715057.8109498,-25,10,74,127,67,-2,-128,-34,,3
1624715057.8109498,-88,30,-94,57,56,-4,-6,-94,,3
1624715057.818175,-18,-74,2,-31,44,1,-1,-13,,0
1624715057.818175,127,-65,3,-43,-114,2,-60,-59,,0
1624715057.834827,-38,-128,52,-47,-30,-9,127,3,,1
1624715057.834827,78,57,-10,89,95,-10,-31,-31,,1
1624715057.8380969,-44,-128,-2,2,-128,10,-128,-128,,2
1624715057.8380969,11,20,-13,13,127,-11,127,5,,2
1624715057.857213,124,4,-63,24,-8,-5,-13,127,,3
1624715057.857213,-59,-92,40,-2,-102,-2,98,-128,,3
1624715057.860505,51,91,-8,-56,-25,-1,-108,127,,0
1624715057.860505,69,98,29,127,127,-3,127,17,,0
1624715057.871265,-47,127,-12,-35,-111,-4,-128,-10,,1
1624715057.871265,-37,19,-112,-128,-128,1,127,-46,,1
1624715057.880586,51,100,109,127,127,3,-51,63,,2
1624715057.880586,16,40,-73,-128,-128,0,-42,77,,2
1624715057.894778,-90,-35,10,127,-128,-3,44,33,,3
1624715057.894778,127,-128,11,-122,127,2,127,127,,3
1624715057.897713,24,-128,70,-90,-128,2,-128,-27,,0
1624715057.897713,-125,-128,30,44,127,-9,-7,-112,,0
1624715057.916786,127,127,-53,-74,-11,-8,127,127,,1
1624715057.916786,-54,-47,3,40,-119,7,7,-115,,1
1624715057.91925,-30,-45,-30,39,127,0,-128,-128,,2
1624715057.91925,63,112,-54,9,-128,4,127,-48,,2
1624715057.931227,-14,-117,20,15,-70,5,-112,-98,,3
1624715057.931227,127,-6,-39,-1,127,3,52,-104,,3
1624715057.9407969,66,56,-11,16,-128,4,67,-57,,0
1624715057.9407969,66,0,-28,-111,-92,9,53,127,,0
1624715057.955101,49,127,4,4,-128,1,-128,-114,,1
1624715057.955101,-17,-128,32,-74,127,1,-11,50,,1
1624715057.958328,50,-128,-7,127,-128,-3,-1,25,,2
1624715057.958328,1,-120,-10,-128,-128,2,-115,-100,,2
1624715057.9774542,41,-128,93,93,127,-5,-128,-23,,3
1624715057.9774542,117,103,11,-103,-128,3,127,-74,,3
1624715057.980414,55,127,-12,-43,5,3,-54,47,,0
1624715057.980414,-64,5,79,127,127,2,127,-61,,0
1624715057.9908302,98,127,9,-128,-58,7,-40,101,,1
1624715057.9908302,-18,-128,22,76,127,-2,-128,23,,1
1624715058.005316,64,-17,-4,-96,-128,1,127,53,,2
1624715058.005316,-36,-15,39,-12,127,9,-128,-86,,2
1624715058.0145159,-11,-39,-83,32,60,-9,127,95,,3
1624715058.0145159,-3,-128,-11,-54,-46,-6,-128,127,,3
1624715058.016798,113,127,54,-59,-128,-4,127,127,,0
1624715058.016798,-77,83,-63,127,127,1,-8,54,,0
1624715058.037109,9,-19,-61,-108,-128,2,42,33,,1
1624715058.037109,51,-128,-50,-93,-115,-5,-128,127,,1
1624715058.040046,45,103,64,51,127,7,-124,-38,,2
1624715058.040046,21,-4,31,72,-47,-6,127,127,,2
1624715058.050884,-8,-128,-29,-128,-128,9,-92,-17,,3
1624715058.050884,-15,59,33,127,120,2,11,-25,,3
1624715058.060632,9,31,39,-34,-31,7,-51,1,,0
1624715058.060632,4,-32,5,-7,-3,-1,-19,-22,,0
1624715058.074798,127,-62,38,-19,-127,0,-101,-55,,1
1624715058.074798,24,21,-4,65,127,-3,125,55,,1
1624715058.0780082,-52,-48,9,-70,-31,-3,48,-100,,2
1624715058.0780082,89,2,29,37,-72,6,-128,101,,2
1624715058.097304,82,81,69,127,23,0,71,85,,3
1624715058.097304,-84,-53,62,-128,-12,-1,-95,-25,,3
1624715058.100393,-57,-22,14,-3,-110,1,-49,-110,,0
1624715058.100393,29,20,-14,-63,54,1,45,3,,0
1624715058.111122,-11,36,127,107,34,1,9,3,,1
1624715058.111122,-19,-13,9,-50,-81,-2,-10,-18,,1
1624715058.120708,-12,-45,3,-128,-63,-2,-31,-11,,2
1624715058.120708,-33,20,7,127,72,0,68,54,,2
1624715058.134449,45,73,-17,127,13,1,-128,6,,3
1624715058.134449,-19,-6,-100,79,22,-4,11,-21,,3
1624715058.1376011,-60,-51,-24,-128,-35,-6,-35,-59,,0
1624715058.1376011,-35,-71,-29,-128,-128,0,8,-27,,0
1624715058.156972,-79,83,47,127,127,-4,103,127,,1
1624715058.156972,-112,64,32,127,-36,-3,114,10,,1
1624715058.1600251,-2,5,9,-57,-35,-8,5,-73,,2
1624715058.1600251,-57,-68,13,-97,-26,1,5,-41,,2
1624715058.169865,-33,-80,-2,-79,-80,1,-111,-6,,3
1624715058.169865,70,50,-26,103,61,6,126,127,,3
1624715058.180196,71,24,11,35,43,-1,-39,-18,,0
1624715058.180196,-7,-47,4,-127,-36,-4,57,8,,0
1624715058.1950238,-18,-19,-44,-65,-47,5,57,1,,1
1624715058.1950238,9,-31,-11,0,10,-1,20,1,,1
1624715058.197919,-22,-24,-5,-72,-13,-7,3,27,,2
1624715058.197919,70,42,66,67,23,2,-2,4,,2
1624715058.217123,-75,35,-9,-85,-8,1,53,-6,,3
1624715058.217123,71,68,-4,82,-27,5,-56,-18,,3
1624715058.219928,70,116,60,127,99,1,-23,-11,,0
1624715058.219928,-60,18,-17,-110,-3,0,16,9,,0
1624715058.2308831,-17,9,3,-102,-32,7,-19,-17,,1
1624715058.2308831,0,29,-7,-45,-27,4,-18,-10,,1
1624715058.240736,-21,-45,-98,-109,-30,2,-21,-12,,2
1624715058.240736,-12,-5,-128,127,49,2,30,15,,2
1624715058.254357,4,-24,-14,11,18,1,10,11,,3
1624715058.254357,-1,-90,-61,39,6,-6,-12,-7,,3
1624715058.2574232,-10,-43,88,-64,-24,0,-22,-12,,0
1624715058.2574232,-12,-53,-39,-67,-40,-4,15,-5,,0
1624715058.277258,-4,1,-40,10,17,11,-4,-10,,1
1624715058.277258,-38,-39,-88,-8,-7,1,7,-20,,1
1624715058.280155,10,-50,13,30,10,7,1,2,,2
1624715058.280155,9,-52,58,54,20,-3,26,11,,2
1624715058.2910988,4,24,-22,-31,21,18,2,-33,,3
1624715058.2910988,18,-45,-46,73,16,-40,6,59,,3
1624715058.3004951,0,-105,-10,-32,-28,-8,-5,-4,,0
1624715058.3004951,-6,-32,-6,-12,-7,0,-4,-10,,0
1624715058.314962,-3,-44,-41,-19,-9,-39,-19,51,,1
1624715058.314962,-36,127,-2,-58,-23,-27,46,-13,,1
1624715058.3179588,126,82,127,99,59,-25,17,-9,,2
1624715058.3179588,-64,-128,-33,-37,-10,-24,1,-14,,2
1624715058.3375292,6,29,-28,-24,-8,-41,-36,-4,,3
1624715058.3375292,-12,-14,-48,-6,-7,-20,0,1,,3
1624715058.340513,2,10,24,8,-4,15,8,0,,0
1624715058.340513,-37,-3,0,-38,-12,-20,-10,14,,0
1624715058.3511622,5,13,-3,29,3,25,7,-3,,1
1624715058.3511622,12,54,-56,8,2,-1,3,8,,1
1624715058.3605251,0,53,8,-2,5,10,-3,-4,,2
1624715058.3605251,2,17,-83,-128,-42,-6,-9,-8,,2
1624715058.374558,1,88,-100,127,31,-23,-23,12,,3
1624715058.374558,-38,-17,13,-9,45,-13,32,-40,,3
1624715058.377742,14,-5,-8,10,-13,29,8,2,,0
1624715058.377742,-1,-9,30,-67,14,34,3,3,,0
1624715058.3976262,-14,-49,-46,-22,-46,-41,-20,-14,,1
1624715058.3976262,-20,-46,-63,-13,-58,-12,-11,-22,,1
1624715058.4004438,37,39,127,96,55,-2,-9,-11,,2
1624715058.4004438,-15,-9,28,80,20,25,-4,74,,2
1624715058.411201,10,16,32,23,30,-8,30,-27,,3
1624715058.411201,-88,-128,-126,-63,-45,-64,65,-63,,3
1624715058.4203808,56,-27,-56,-17,25,27,-20,52,,0
1624715058.4203808,43,-56,-94,-63,-15,3,-11,-12,,0
1624715058.434978,12,46,108,-2,-30,-31,-53,-21,,1
1624715058.434978,-36,-15,18,127,67,-13,68,25,,1
1624715058.437941,-66,-59,-41,-61,-26,11,8,-19,,2
1624715058.437941,6,30,-16,-30,-14,-10,-3,-4,,2
1624715058.4570282,-7,-38,-5,-66,-10,-34,-25,-17,,3
1624715058.4570282,-18,-43,-17,-14,-28,-56,-33,-28,,3
1624715058.4598012,27,57,-33,53,7,24,17,34,,0
1624715058.4598012,-5,5,51,-1,10,27,-1,-2,,0
1624715058.471571,12,36,28,-7,1,-16,-9,14,,1
1624715058.471571,-12,-13,-38,-8,4,-43,10,-1,,1
1624715058.480747,11,31,127,-66,-11,82,52,16,,2
1624715058.480747,1,-18,-24,-23,-13,11,8,2,,2
1624715058.494432,12,42,-22,114,46,25,-6,63,,3
1624715058.494432,3,-22,-109,8,0,21,127,-14,,3
1624715058.497259,-4,-21,7,-38,-21,11,-33,-7,,0
1624715058.497259,-7,15,27,-18,-9,5,2,2,,0
1624715058.517251,-9,-24,4,-51,-9,3,0,1,,1
1624715058.517251,-5,-9,22,5,1,-39,4,-5,,1
1624715058.519383,-5,-5,15,-18,0,21,7,1,,2
1624715058.519383,-1,-4,-15,-7,-2,14,1,-4,,2
1624715058.540184,3,-2,-24,-6,1,8,-1,-1,,3
1624715058.540184,-1,-4,-37,-5,-1,-59,-3,-7,,3
1624715058.543282,-10,-23,-33,-24,-30,4,-11,-6,,0
1624715058.543282,5,9,-43,10,15,7,12,0,,0
1624715058.555038,5,28,-62,7,7,-11,-7,2,,1
1624715058.555038,-7,-8,-33,-16,-2,-48,-6,-3,,1
1624715058.558496,-1,8,31,-11,-3,10,1,-1,,2
1624715058.558496,-3,-8,18,-11,-6,27,4,0,,2
1624715058.577467,1,0,5,10,5,-4,-5,1,,3
1624715058.577467,-3,-6,-30,-5,-1,-55,2,-3,,3
1624715058.580381,1,6,7,-12,-12,12,-1,-1,,0
1624715058.580381,0,-12,0,29,0,21,0,1,,0
1624715058.599709,-1,2,11,-17,0,-40,-6,-1,,1
1624715058.599709,-4,2,-51,-3,12,-36,14,-4,,1
1624715058.602808,-1,11,8,-5,-2,-1,-25,-1,,2
1624715058.602808,-2,-2,-3,-15,-5,33,-8,-1,,2
1624715058.613329,-3,0,-12,-15,-7,-16,9,2,,3
1624715058.613329,-5,-8,-47,42,13,-62,-18,-8,,3
1624715058.622886,2,-4,20,11,-5,20,12,5,,0
1624715058.622886,-5,-18,0,-14,-10,21,0,-4,,0
1624715058.636899,11,57,-2,-9,0,-24,-7,6,,1
1624715058.636899,-5,-36,-30,-1,-21,-47,-1,-6,,1
1624715058.6398962,1,-5,-5,0,2,15,6,4,,2
1624715058.6398962,3,-6,26,7,5,34,6,3,,2
1624715058.6599889,-3,-12,-14,-1,-4,2,-1,4,,3
1624715058.6599889,-4,5,-32,-11,-2,-31,4,-4,,3
1624715058.663682,-7,-8,-1,-13,-5,3,-7,-6,,0
1624715058.663682,4,-6,2,27,1,26,4,7,,0
1624715058.672349,5,7,-5,-34,15,-31,2,-4,,1
1624715058.672349,-3,3,-25,72,12,-38,2,-3,,1
1624715058.6825962,-9,-10,-3,-72,-13,8,-7,-5,,2
1624715058.6825962,1,12,-22,100,43,49,4,0,,2
1624715058.697393,7,24,78,7,-10,2,-3,3,,3
1624715058.697393,5,23,-61,1,7,-42,10,5,,3
1624715058.700166,2,-13,19,-31,8,18,9,2,,0
1624715058.700166,0,0,-10,-27,-11,28,1,0,,0
1624715058.719527,-8,-7,-30,20,-8,-3,-4,1,,1
1624715058.719527,-3,10,-33,5,1,-47,-8,-3,,1
1624715058.7224782,-1,37,9,-4,0,16,4,1,,2
1624715058.7224782,6,58,12,15,10,38,7,4,,2
1624715058.733238,-5,43,-11,2,10,-1,4,1,,3
1624715058.733238,-7,13,-26,4,-3,-32,-9,-7,,3
1624715058.742872,-6,2,10,-38,-38,1,3,-2,,0
1624715058.742872,4,-18,5,8,-14,35,2,3,,0
1624715058.757113,0,-22,-13,-23,41,2,7,2,,1
1624715058.757113,2,-22,-44,24,-11,-38,4,-1,,1
1624715058.760158,-4,-29,-7,-87,-17,4,-4,-1,,2
1624715058.760158,-11,-35,9,114,13,36,-14,-11,,2
1624715058.786877,1,-1,38,8,-6,-7,3,4,,3
1624715058.786877,1,9,21,-27,-1,-42,9,-7,,3
1624715058.7896771,-7,-34,-27,-50,-10,-3,-16,-12,,0
1624715058.7896771,-2,-13,-30,28,1,31,-1,1,,0
1624715058.79282,2,-1,5,-15,12,-17,5,5,,1
1624715058.79282,-7,-23,-31,10,-1,-24,-5,-5,,1
1624715058.803086,5,2,-33,-70,36,30,7,5,,2
1624715058.803086,3,-15,-52,-2,-17,43,2,3,,2
1624715058.817761,-11,-19,-8,10,3,-16,7,-3,,3
1624715058.817761,1,-21,-24,30,3,-36,-12,-9,,3
1624715058.820222,4,-69,-9,9,14,33,10,10,,0
1624715058.820222,4,-32,46,13,-2,43,12,15,,0
1624715058.8398058,-5,-37,-45,-44,-36,-14,-25,1,,1
1624715058.8398058,-3,16,-67,10,4,-7,-3,-3,,1
1624715058.843062,4,20,5,31,8,5,4,4,,2
1624715058.843062,3,13,4,16,17,50,20,5,,2
1624715058.853277,-5,8,-22,-4,0,-26,-16,-10,,3
1624715058.853277,-2,9,-38,0,16,-23,16,-4,,3
1624715058.863314,-3,4,-6,-30,-7,22,-24,-8,,0
1624715058.863314,9,45,98,37,-23,9,-4,4,,0
1624715058.877125,-12,-33,-57,12,3,-15,-1,-6,,1
1624715058.877125,-12,-19,-18,-27,14,-13,10,-8,,1
1624715058.8800929,-6,-31,-16,-18,-28,12,3,-1,,2
1624715058.8800929,13,22,49,-15,-17,15,-5,7,,2
1624715058.899554,-6,-6,-19,-18,6,-43,-12,-3,,3
1624715058.899554,0,3,-1,-45,-2,-28,11,0,,3
1624715058.9027169,3,-24,-8,6,-16,26,0,4,,0
1624715058.9027169,2,1,7,37,-29,35,5,6,,0
1624715058.913249,1,13,-9,6,-10,-29,-32,-8,,1
1624715058.913249,2,10,-9,31,12,9,-1,2,,1
1624715058.9231942,-8,0,-40,-73,-18,7,3,-3,,2
1624715058.9231942,-2,-2,23,-40,9,20,-9,-3,,2
1624715058.937222,-4,2,-81,-41,-16,-2,12,4,,3
1624715058.937222,8,44,12,88,14,4,4,-1,,3
1624715058.939861,4,14,15,44,9,-12,5,1,,0
1624715058.939861,-7,-6,-11,-28,-7,15,-16,-8,,0
1624715058.9671621,-2,20,-17,-24,-8,-20,2,-3,,1
1624715058.9671621,-1,6,-32,-18,1,10,27,-1,,1
1624715058.970303,3,11,19,-5,-11,21,-21,3,,2
1624715058.970303,-2,9,22,13,10,32,6,2,,2
1624715058.9731781,-4,-3,22,-26,-9,-19,4,2,,3
1624715058.9731781,3,30,75,12,18,-10,-15,-7,,3
1624715058.983607,-4,5,-29,-5,-6,3,2,-4,,0
1624715058.983607,4,4,-38,2,-16,42,7,14,,0
1624715058.99698,-1,10,-8,-65,-10,-16,-1,-3,,1
1624715058.99698,-3,-10,-86,-2,1,0,-2,-1,,1
1624715058.9997282,3,16,-14,-13,-4,7,-3,5,,2
1624715058.9997282,-7,14,41,-20,-26,21,-11,-7,,2
1624715059.020315,-1,18,-17,-6,-19,-12,-4,1,,3
1624715059.020315,4,21,-9,-18,3,-7,-14,3,,3
1624715059.022372,3,49,1,5,25,23,8,8,,0
1624715059.022372,2,22,10,-38,-18,23,18,3,,0
1624715059.02543,-11,-27,13,-44,-33,-35,-19,-14,,1
1624715059.02543,-2,-24,5,-8,0,12,0,-4,,1
1624715059.035352,4,-29,-31,17,13,1,2,2,,2
1624715059.035352,2,-32,-4,2,4,27,4,3,,2
1624715059.057456,2,-29,-25,12,6,-11,3,-1,,3
1624715059.057456,-9,-31,7,39,5,-7,-10,-11,,3
1624715059.060029,4,-7,30,48,4,0,-4,1,,0
1624715059.060029,11,1,82,-13,36,32,-5,7,,0
1624715059.072119,-6,-13,-57,-17,-13,-14,-4,-4,,1
1624715059.072119,-10,-4,0,-28,-17,9,-2,-7,,1
1624715059.0747468,4,0,-67,39,34,-2,-19,1,,2
1624715059.0747468,-6,-47,-4,-32,-12,16,6,-6,,2
1624715059.0858712,1,-1,19,20,-14,-24,-1,0,,3
1624715059.0858712,1,-2,20,42,25,-6,1,-3,,3
1624715059.102922,-4,-11,16,-10,10,0,18,4,,0
1624715059.102922,3,64,21,-9,-2,47,-5,4,,0
1624715059.1081579,11,33,-26,7,-14,25,-10,1,,1
1624715059.1081579,-7,-69,27,8,2,14,-8,-9,,1
1624715059.1185238,5,2,38,33,19,6,2,7,,2
1624715059.1185238,-3,17,-13,-6,0,3,-5,1,,2
1624715059.132329,-4,24,-26,-6,-2,-30,0,-4,,3
1624715059.132329,6,44,-9,-9,-5,-8,-5,-2,,3
1624715059.1347442,0,59,-9,19,1,-7,1,-3,,0
1624715059.1347442,-3,53,18,2,1,6,3,0,,0
1624715059.154795,-4,22,-4,-13,-2,-23,-2,-3,,1
1624715059.154795,-2,-15,-5,7,0,2,2,-3,,1
1624715059.157708,2,-29,-5,-22,8,12,-2,-4,,2
1624715059.157708,0,-34,43,16,9,31,10,4,,2
1624715059.176376,-5,-36,-17,-5,-2,-12,-11,-6,,3
1624715059.176376,0,-26,-28,-4,1,-15,-2,-2,,3
1624715059.178037,0,-15,9,3,3,-6,-4,0,,0
1624715059.178037,0,-10,-25,23,-23,0,0,3,,0
1624715059.1996958,2,19,4,-32,21,-7,6,0,,1
1624715059.1996958,0,-1,-17,28,-4,6,-4,-5,,1
1624715059.201797,-7,-14,-23,-17,-6,18,3,-3,,2
1624715059.201797,-6,20,-8,9,3,5,2,2,,2
1624715059.206049,-3,-40,16,-23,-14,-7,-5,-1,,3
1624715059.206049,1,36,48,16,7,0,-1,0,,3
1624715059.223994,10,119,-5,-1,-3,-1,0,0,,0
1624715059.223994,4,2,-17,9,-4,7,-3,2,,0
1624715059.229137,-2,-1,-17,-11,-2,-13,-1,-5,,1
1624715059.229137,1,74,-10,-21,7,9,6,5,,1
1624715059.243065,3,6,8,0,0,-4,-1,-1,,2
1624715059.243065,-5,-22,0,8,-1,14,4,4,,2
1624715059.252266,1,19,50,-6,-2,-11,-8,-4,,3
1624715059.252266,-11,-128,-12,18,-11,-17,-6,-8,,3
1624715059.2553349,-1,3,6,5,4,3,-3,-4,,0
1624715059.2553349,1,6,7,-3,-6,4,-8,4,,0
1624715059.274584,-5,-1,-11,-9,4,-10,-2,-1,,1
1624715059.274584,1,2,6,21,-2,-8,-4,-3,,1
1624715059.277642,-1,-3,-17,-5,2,0,1,1,,2
1624715059.277642,-1,-1,13,-3,1,6,6,5,,2
1624715059.298402,-9,-7,-22,-20,-5,-10,0,-8,,3
1624715059.298402,-2,-8,-56,-11,-8,3,-3,-1,,3
1624715059.3030899,18,35,94,48,38,10,11,12,,0
1624715059.3030899,2,-3,0,-1,-1,5,3,2,,0
1624715059.319704,-4,18,-26,-6,-3,-6,-3,-4,,1
1624715059.319704,0,41,-12,-11,-7,2,1,-1,,1
1624715059.3226712,-2,43,-8,-10,-8,-5,-3,-3,,2
1624715059.3226712,1,14,-1,-10,-9,4,-4,3,,2
1624715059.342256,2,7,-3,18,9,-5,1,0,,3
1624715059.342256,4,-11,-6,-3,-9,-5,-4,-5,,3
1624715059.3455381,-4,-16,-5,-16,5,5,-5,-1,,0
1624715059.3455381,-4,78,3,-3,1,6,-6,1,,0
1624715059.3484359,2,-1,6,5,6,2,2,-1,,1
1624715059.3484359,-5,3,9,0,2,4,0,-1,,1
1624715059.363391,-1,-15,-34,-52,-1,8,-1,-1,,2
1624715059.363391,12,-13,-40,49,11,4,-8,1,,2
1624715059.387936,-10,-128,-50,-4,12,-6,2,-5,,3
1624715059.387936,2,18,25,-7,-6,-3,2,-1,,3
1624715059.391118,-6,-19,-49,-9,1,-1,0,2,,0
1624715059.391118,-1,-47,-7,-13,-12,3,-3,1,,0
1624715059.392735,0,-9,-20,-17,4,-3,0,-1,,1
1624715059.392735,-2,-8,-5,-3,1,-1,-3,-1,,1
1624715059.440248,-3,-8,1,11,-4,0,1,1,,2
1624715059.440248,0,-14,-19,-36,-11,8,-4,-3,,2
1624715059.441658,2,-4,33,2,0,-9,6,3,,3
1624715059.441658,-3,-8,-5,-8,-8,-4,-5,-4,,3
1624715059.477631,-3,-3,-6,-5,-5,2,-2,-2,,0
1624715059.477631,-2,0,-11,7,-6,0,-4,4,,0
1624715059.47822,3,1,0,-39,-9,-11,4,1,,1
1624715059.47822,-1,4,90,71,11,3,2,0,,1
1624715059.4800289,-2,-5,61,-1,1,-2,1,-2,,2
1624715059.4800289,8,35,-31,-1,-10,1,-3,2,,2
1624715059.484072,-6,-12,-6,6,0,-5,2,-4,,3
1624715059.484072,4,127,-4,2,2,1,-1,2,,3
1624715059.485292,-1,20,-1,-2,0,-2,3,1,,0
1624715059.485292,0,18,9,-4,-5,2,-4,-3,,0
1624715059.491559,6,11,53,23,12,2,6,5,,3
1624715059.491559,-1,-10,-5,-21,0,-1,-1,-2,,3
1624715059.5070138,-3,-10,-10,-5,-4,-3,-3,-3,,0
1624715059.5070138,-1,-8,-8,-19,-8,-1,-1,1,,0
1624715059.508374,-3,-7,7,6,0,-3,3,0,,1
1624715059.508374,0,-6,-19,-34,-2,1,6,1,,1
1624715059.52327,1,-2,73,45,0,0,-4,2,,2
1624715059.52327,0,8,7,-9,1,2,5,3,,2
1624715059.528981,2,8,12,10,5,2,4,0,,3
1624715059.528981,4,13,-5,3,-4,0,9,3,,3
1624715059.5361059,-3,8,-9,-11,-4,-2,-10,-5,,0
1624715059.5361059,2,22,-20,-7,3,10,1,4,,0
1624715059.552029,-9,4,-8,26,6,-6,0,-6,,1
1624715059.552029,2,13,32,32,8,5,-2,-1,,1
1624715059.575875,-14,-90,-25,-28,-4,-8,-4,-9,,2
1624715059.575875,2,-18,34,17,-1,-3,-3,1,,2
1624715059.5772889,3,10,-7,-9,-4,-4,2,-1,,3
1624715059.5772889,-4,1,-23,-24,-1,0,-4,-4,,3
1624715059.579848,-2,-2,82,8,5,2,-3,1,,0
1624715059.579848,2,-16,9,-7,-5,5,0,1,,0
1624715059.5972102,-3,-13,-33,-13,-6,-6,3,-1,,1
1624715059.5972102,2,-11,98,46,5,6,7,3,,1
1624715059.60018,0,-7,23,-5,2,7,-2,3,,2
1624715059.60018,-3,-17,-25,-7,-8,-1,-1,-2,,2
1624715059.612384,1,-5,91,-5,14,-3,1,1,,3
1624715059.612384,-5,-15,-15,5,0,-3,-6,-4,,3
1624715059.621235,-3,4,-6,-3,1,-3,0,0,,0
1624715059.621235,-2,-6,0,-30,-4,2,1,-1,,0
1624715059.6259022,0,-4,-3,43,5,-5,-1,-1,,1
1624715059.6259022,-4,0,-7,-7,4,5,2,-3,,1
1624715059.643132,-4,-4,17,-9,-4,-4,-3,-1,,2
1624715059.643132,2,28,3,7,-5,2,0,1,,2
1624715059.6734478,-10,-93,-42,-5,4,-7,1,-7,,3
1624715059.6734478,12,18,112,31,2,7,-3,5,,3
1624715059.675915,5,1,-11,-1,-2,0,-4,-7,,0
1624715059.675915,7,-6,-4,-9,-2,-1,3,8,,0
1624715059.676825,8,7,-10,-29,1,0,1,3,,1
1624715059.676825,0,-5,-2,-3,-5,-2,-2,0,,1
1624715059.68818,-1,0,-41,0,1,1,0,-1,,2
1624715059.68818,0,-2,99,15,0,4,1,2,,2
1624715059.711135,-1,-8,-17,4,3,-7,-2,0,,3
1624715059.711135,9,114,9,-5,-2,7,-1,2,,3
1624715059.713946,2,28,11,6,-1,0,2,-3,,0
1624715059.713946,0,11,-17,23,1,4,2,-3,,0
1624715059.7150688,11,3,-45,-99,-10,-10,0,19,,1
1624715059.7150688,8,19,85,86,12,9,-3,1,,1
1624715059.71694,-6,0,-39,-24,2,-3,-1,16,,2
1624715059.71694,7,0,-16,-6,6,0,-6,-10,,2
1624715059.756207,-39,48,-23,17,-12,-14,5,15,,3
1624715059.756207,-13,2,7,-11,-1,2,0,-20,,3
1624715059.7592618,5,4,-5,-3,-3,0,-2,1,,0
1624715059.7592618,-2,0,42,8,-3,1,-4,2,,0
1624715059.760685,3,-2,-17,-35,3,-1,1,7,,1
1624715059.760685,0,-4,1,12,-4,2,-1,3,,1
1624715059.763381,-6,-10,-9,-2,-3,-2,1,-5,,2
1624715059.763381,-1,-41,-26,0,0,-1,-5,-2,,2
1624715059.7689412,0,1,18,8,2,-2,0,4,,3
1624715059.7689412,0,-9,10,-6,3,-2,-1,-1,,3
1624715059.783454,-2,-3,-6,-30,-5,-4,-1,-1,,0
1624715059.783454,-5,1,-42,-13,-2,4,3,-1,,0
1624715059.799647,18,-4,70,90,4,-2,1,-3,,1
1624715059.799647,2,11,45,-9,10,10,1,7,,1
1624715059.8071911,1,-3,-14,-16,1,-2,-4,4,,2
1624715059.8071911,3,-5,-6,1,-5,-1,-9,0,,2
1624715059.814114,0,-7,0,11,-1,-1,-7,-5,,3
1624715059.814114,0,-1,30,25,2,5,2,1,,3
1624715059.816897,1,-4,-16,4,-3,-3,-4,0,,0
1624715059.816897,3,-1,21,-23,-4,0,1,-5,,0
1624715059.844546,0,0,3,20,-1,-4,2,22,,1
1624715059.844546,-2,0,-21,-37,-2,2,-1,-19,,1
1624715059.847372,4,5,20,-33,15,6,2,-1,,2
1624715059.847372,11,10,0,122,4,-1,-2,3,,2
1624715059.8512871,-68,-4,-16,-10,-3,-3,-4,-5,,3
1624715059.8512871,4,-52,-13,-11,-2,1,-8,1,,3
1624715059.858258,2,-3,3,-13,-1,-3,-5,-3,,0
1624715059.858258,0,13,-3,-8,-3,8,-2,6,,0
1624715059.8747709,0,7,-4,2,1,-8,-4,-2,,1
1624715059.8747709,21,11,-21,-27,-2,6,5,3,,1
1624715059.898937,1,127,12,-5,3,7,9,5,,2
1624715059.898937,-7,-1,-11,-2,1,-2,-3,1,,2
1624715059.899848,-4,-4,-35,-5,-8,-8,-5,0,,3
1624715059.899848,-5,18,62,26,-1,-3,-27,-29,,3
1624715059.9026618,-70,-31,-65,-11,0,-5,10,-32,,0
1624715059.9026618,116,18,76,32,-2,14,-4,123,,0
1624715059.9438138,6,-7,-15,-8,4,4,30,30,,1
1624715059.9438138,-7,-4,-33,-4,-1,-6,2,-10,,1
1624715059.946639,-9,3,30,-7,-8,-10,-27,-7,,2
1624715059.946639,-12,-8,3,-2,1,6,5,-29,,2
1624715059.947767,-36,-4,27,40,1,0,-2,1,,3
1624715059.947767,-5,-8,-23,-27,-12,-19,-20,-7,,3
1624715059.949738,5,-33,6,-20,-5,9,11,-2,,0
1624715059.949738,-28,22,17,7,-1,-3,0,9,,0
1624715059.955769,-4,-2,9,5,4,0,-15,6,,1
1624715059.955769,3,-6,-54,-29,4,6,-6,-17,,1
1624715059.990587,0,-3,116,-15,-5,-3,-4,2,,2
1624715059.990587,2,30,-12,78,8,3,0,3,,2
1624715059.991751,5,35,-30,11,-3,-11,-8,-6,,3
1624715059.991751,0,36,10,-27,-4,1,-24,-5,,3
1624715059.9941728,1,25,31,21,12,22,41,22,,0
1624715059.9941728,-1,-6,-1,-7,-6,-5,-12,-1,,0
1624715060.0026171,0,-15,-67,-14,0,-6,-12,-9,,1
1624715060.0026171,10,0,28,24,7,3,-4,10,,1
1624715060.005447,-4,-128,-27,-11,-5,3,7,-11,,2
1624715060.005447,6,-8,-28,0,-4,-8,-3,-4,,2
1624715060.025151,50,41,20,-5,9,-8,-17,-4,,3
1624715060.025151,7,-14,5,-1,2,19,11,17,,3
1624715060.0308979,7,-6,-14,23,4,4,9,3,,0
1624715060.0308979,-3,-4,64,21,-6,-2,-1,-3,,0
1624715060.0395432,0,-8,-22,-48,5,-6,3,0,,1
1624715060.0395432,-1,-16,-37,-2,0,2,-3,-2,,1
1624715060.042312,-3,-16,49,127,9,0,1,3,,2
1624715060.042312,15,26,-50,-4,10,7,4,5,,2
1624715060.069056,0,-12,-51,-21,-7,-5,-1,-3,,3
1624715060.069056,-2,41,0,-11,-3,4,2,3,,3
1624715060.078701,3,-7,5,-10,-6,1,-3,6,,0
1624715060.078701,9,-4,-14,-4,0,-3,3,-13,,0
1624715060.07984,38,3,-16,1,4,-7,-2,-9,,1
1624715060.07984,4,-1,5,-6,3,4,3,2,,1
1624715060.084637,4,2,53,8,0,-1,-4,3,,2
1624715060.084637,2,4,2,16,7,8,7,3,,2
1624715060.116558,0,-4,-58,-20,-3,-16,-15,-5,,3
1624715060.116558,0,-15,-20,8,-4,1,-3,0,,3
1624715060.123803,5,12,17,-27,10,8,4,3,,0
1624715060.123803,-4,-1,-40,58,1,0,-1,-1,,0
1624715060.125067,2,7,-10,-52,9,-5,-1,-1,,1
1624715060.125067,8,-46,14,0,-3,-4,6,-2,,1
1624715060.128138,-3,-1,-4,-19,-9,5,7,23,,2
1624715060.128138,-60,-9,-4,-5,-1,2,2,-17,,2
1624715060.1355672,9,1,-6,7,4,3,23,8,,3
1624715060.1355672,0,0,-3,-4,-7,-5,-15,-6,,3
1624715060.163106,-3,-29,-12,-3,-3,-5,-12,-6,,0
1624715060.163106,2,13,9,6,3,-1,-2,0,,0
1624715060.1645062,-2,-10,-37,3,5,-9,-1,-7,,1
1624715060.1645062,3,15,64,0,-1,2,1,0,,1
1624715060.167406,0,-12,-61,7,2,3,6,0,,2
1624715060.167406,-3,-1,16,-38,-11,-2,-3,2,,2
1624715060.181485,-9,-45,-62,-27,3,-6,0,-6,,3
1624715060.181485,13,25,127,63,16,4,7,4,,3
1624715060.183131,-7,-6,-31,-26,-8,-3,-4,1,,0
1624715060.183131,-4,-11,-7,-9,0,0,-4,4,,0
1624715060.205415,3,5,24,56,7,-7,0,0,,1
1624715060.205415,-5,-8,-9,-10,-1,0,-1,-1,,1
1624715060.208189,-2,2,3,-12,0,4,2,0,,2
1624715060.208189,-3,-2,5,34,-2,-1,-4,1,,2
1624715060.217943,-2,-2,-31,-38,9,-3,1,-3,,3
1624715060.217943,0,-2,6,-31,-3,5,1,-4,,3
1624715060.22776,0,-4,5,34,-12,-7,-14,-1,,0
1624715060.22776,0,12,-5,20,2,2,2,0,,0
1624715060.249847,2,9,62,35,6,-3,0,-4,,1
1624715060.249847,8,48,-20,-4,-3,-1,-3,6,,1
1624715060.2528331,3,-3,-2,-2,-3,2,-7,1,,2
1624715060.2528331,0,-9,48,0,1,2,2,0,,2
1624715060.264663,-3,-1,-23,7,1,-9,0,-4,,3
1624715060.264663,-16,-128,-15,-11,-1,-5,-4,-9,,3
1624715060.267763,1,22,62,21,3,4,-3,0,,0
1624715060.267763,-1,10,-18,-9,-4,0,6,5,,0
1624715060.2781088,-5,-2,-27,3,5,-8,-3,-7,,1
1624715060.2781088,3,-3,-14,-1,0,-1,-14,-2,,1
1624715060.305054,37,-18,4,-1,-5,2,-8,3,,2
1624715060.305054,-3,-5,0,-6,4,-1,11,2,,2
1624715060.306447,2,9,-52,-14,4,-5,1,-2,,3
1624715060.306447,-3,-2,-6,3,2,0,0,-1,,3
1624715060.3094258,5,5,72,32,4,1,1,4,,0
1624715060.3094258,-3,-3,-16,13,0,0,-4,-4,,0
1624715060.324592,-10,-1,-3,3,-1,-9,-3,-10,,1
1624715060.324592,11,47,5,0,6,2,-1,7,,1
1624715060.327395,-7,-6,-3,-12,-3,6,-5,-5,,2
1624715060.327395,0,2,30,7,-4,-3,7,2,,2
1624715060.3464808,-2,-9,-12,2,0,-9,0,-5,,3
1624715060.3464808,-2,1,-22,-2,-7,1,-4,-3,,3
1624715060.364726,3,4,24,-26,3,4,1,3,,0
1624715060.364726,-2,-6,-12,22,1,-1,-1,-3,,0
1624715060.366016,0,-3,-24,17,5,-10,-7,-1,,1
1624715060.366016,2,2,-32,-5,-4,1,-3,0,,1
1624715060.3687098,-6,-19,23,-2,-3,5,0,1,,2
1624715060.3687098,2,125,-26,0,-1,5,3,6,,2
1624715060.392559,3,1,-27,-5,3,-5,-1,-4,,3
1624715060.392559,0,12,-3,4,0,3,1,2,,3
1624715060.395694,0,4,-5,-5,-3,4,1,2,,0
1624715060.395694,-2,0,10,3,-1,0,4,-1,,0
1624715060.4070919,0,-1,-11,-5,-2,-6,-1,-4,,1
1624715060.4070919,-3,-6,7,-8,-3,-1,2,-1,,1
1624715060.410089,-1,-3,2,9,-3,5,0,1,,2
1624715060.410089,-8,-128,-69,-15,-1,-9,-5,-6,,2
1624715060.4376361,-11,5,24,0,2,-9,-14,-8,,3
1624715060.4376361,3,13,-22,-67,-26,1,0,0,,3
1624715060.440586,-3,7,58,74,16,-2,1,2,,0
1624715060.440586,7,5,2,-14,-1,-1,0,1,,0
1624715060.444581,-3,65,7,25,-2,-4,-4,-2,,1
1624715060.444581,9,2,55,15,-3,3,2,2,,1
1624715060.4476202,11,12,23,-40,2,8,-1,7,,2
1624715060.4476202,-17,1,5,20,2,1,3,-5,,2
1624715060.4594738,5,-4,-10,-1,3,-1,-6,-2,,3
1624715060.4594738,0,3,-12,-2,-2,-6,-7,2,,3
1624715060.461608,-2,-7,19,-10,-3,-2,-7,-1,,0
1624715060.461608,5,7,9,-3,-1,-5,-1,0,,0
1624715060.482111,-8,-6,1,-37,-3,-5,-2,-6,,1
1624715060.482111,6,16,25,126,21,6,1,5,,1
1624715060.4912572,0,-8,-11,-10,-7,1,2,1,,2
1624715060.4912572,-11,-1,68,16,-4,-4,7,0,,2
1624715060.504815,9,15,10,5,8,-17,-40,-11,,3
1624715060.504815,6,3,-28,1,-3,15,36,34,,3
1624715060.50789,-4,-3,-9,-7,2,12,1,-4,,0
1624715060.50789,-3,-11,-28,-11,-4,-5,-3,3,,0
1624715060.527179,-2,127,-1,10,0,-1,-2,-1,,1
1624715060.527179,0,108,3,-11,-1,3,-1,0,,1
1624715060.530705,6,20,2,13,-6,2,-1,3,,2
1624715060.530705,13,32,19,6,17,2,8,5,,2
1624715060.5570729,-7,5,-8,2,2,-3,3,-1,,3
1624715060.5570729,0,-8,-9,-8,-5,1,-2,-1,,3
1624715060.559572,5,19,9,-17,-1,7,-3,2,,0
1624715060.559572,-9,-9,0,13,-4,-2,0,-7,,0
1624715060.5716102,-3,-6,-17,11,10,-10,-3,-6,,1
1624715060.5716102,2,-3,6,-3,-3,1,0,-2,,1
1624715060.590346,-5,-21,-26,-17,-10,2,-1,1,,2
1624715060.590346,0,1,34,31,5,1,1,0,,2
1624715060.5918999,1,3,-6,-7,2,-4,3,-1,,3
1624715060.5918999,-1,-2,-14,2,6,0,-1,0,,3
1624715060.59485,-1,-3,4,-10,0,8,3,1,,0
1624715060.59485,9,8,30,18,4,-3,-4,0,,0
1624715060.602398,-4,-2,-13,-9,1,-9,0,-1,,1
1624715060.602398,3,-3,12,18,0,4,3,2,,1
1624715060.605152,-3,-16,-5,-5,-8,4,-5,1,,2
1624715060.605152,1,4,-15,-3,-1,-8,-4,0,,2
1624715060.632141,1,10,-9,4,5,-6,-1,-3,,3
1624715060.632141,-1,-3,-25,0,-3,5,3,1,,3
1624715060.641424,-2,-2,10,-4,-1,5,-2,1,,0
1624715060.641424,3,-8,-24,-28,-3,-8,-15,1,,0
1624715060.642544,-5,13,-42,16,6,4,27,-15,,1
1624715060.642544,12,0,23,-1,-2,-3,-9,7,,1
1624715060.648875,-3,-5,-20,-36,-7,3,-5,0,,2
1624715060.648875,2,5,-17,34,-2,-3,-3,0,,2
1624715060.685117,19,113,-6,-6,-1,-4,-3,1,,3
1624715060.685117,5,127,18,1,2,6,5,2,,3
1624715060.686697,1,16,21,21,-1,6,-4,0,,0
1624715060.686697,-3,10,-24,-23,-3,-7,1,0,,0
1624715060.687402,-2,4,-5,1,-1,-3,0,-2,,1
1624715060.687402,2,5,-19,10,-4,-2,-7,-2,,1
1624715060.6911721,2,2,3,-10,-4,8,-8,-1,,2
1624715060.6911721,-2,-3,6,-11,2,-3,4,2,,2
1624715060.699018,-4,-7,1,16,5,-1,1,0,,3
1624715060.699018,11,19,-25,-22,-4,-2,-4,4,,3
1624715060.730417,4,-6,57,53,4,0,9,0,,0
1624715060.730417,-25,4,-6,-13,-4,-3,-10,-2,,0
1624715060.73198,14,-5,-21,-17,0,-4,4,-1,,1
1624715060.73198,0,4,4,11,-6,-1,0,0,,1
1624715060.735241,0,2,2,-9,-5,6,-3,1,,2
1624715060.735241,-3,-3,-15,-14,-6,-4,0,-2,,2
1624715060.744809,0,0,1,18,-3,-4,-3,-4,,3
1624715060.744809,3,4,-10,8,6,6,2,0,,3
1624715060.74827,7,-8,-12,-7,-9,0,-2,-2,,0
1624715060.74827,5,11,24,-19,2,-7,-1,5,,0
1624715060.775487,18,4,20,-6,10,12,12,19,,1
1624715060.775487,57,1,-23,-15,-2,0,2,13,,1
1624715060.777888,4,-3,-3,-3,-5,-2,-7,0,,2
1624715060.777888,3,1,-9,2,-2,-6,-4,4,,2
1624715060.782471,1,49,-12,-21,0,-5,-3,-3,,3
1624715060.782471,-1,-7,-21,-5,-1,0,-5,-2,,3
1624715060.785742,-1,-6,2,-4,-4,2,-1,2,,0
1624715060.785742,-3,9,-8,0,-1,0,1,-1,,0
1624715060.821034,-2,-8,-13,-1,2,-3,-1,0,,1
1624715060.821034,0,8,9,1,0,-1,-3,0,,1
1624715060.824408,-3,-4,-1,10,-2,4,2,3,,2
1624715060.824408,-3,-6,-46,-15,0,-3,0,-1,,2
1624715060.826097,-4,0,51,-41,-3,-5,-3,-2,,3
1624715060.826097,3,9,6,30,5,3,0,1,,3
1624715060.828994,-1,-7,-9,-13,-4,-1,-1,3,,0
1624715060.828994,-3,-6,-10,15,1,-3,3,2,,0
1624715060.842552,2,0,-10,-9,-3,-1,5,2,,1
1624715060.842552,-5,-1,10,-11,-9,-2,-8,0,,1
1624715060.872768,3,7,-33,13,4,7,1,0,,2
1624715060.872768,-2,-7,2,-10,-1,-5,3,-1,,2
1624715060.874282,-3,-41,23,2,3,-3,-7,-6,,3
1624715060.874282,1,7,-12,21,-5,0,-1,-1,,3
1624715060.877262,0,7,3,-21,-3,1,-3,2,,0
1624715060.877262,-2,1,-17,-5,2,-3,1,2,,0
1624715060.878834,-1,-5,-11,-12,-2,-4,0,-4,,1
1624715060.878834,-6,1,23,20,2,3,0,-1,,1
1624715060.8889039,7,-1,-7,-20,-6,3,-1,1,,2
1624715060.8889039,2,3,-17,0,0,-3,9,1,,2
1624715060.916745,0,-2,-36,-15,-4,-10,-13,0,,3
1624715060.916745,-2,1,62,40,4,3,1,2,,3
1624715060.919489,2,4,-28,-8,-5,2,0,4,,0
1624715060.919489,2,-17,-20,-13,-1,-5,4,-1,,0
1624715060.923928,-5,-5,24,12,3,2,-7,0,,1
1624715060.923928,3,-2,0,-12,-2,-2,2,1,,1
1624715060.925828,2,1,4,32,4,7,-1,4,,2
1624715060.925828,-2,47,33,0,1,-4,2,2,,2
1624715060.937997,3,-104,-5,20,-6,-4,-5,-6,,3
1624715060.937997,-2,12,-20,-30,-3,2,2,0,,3
1624715060.970614,1,10,33,3,-3,6,0,5,,0
1624715060.970614,1,2,-14,-11,-2,-6,-1,-2,,0
1624715060.9720771,-2,-5,10,16,-2,1,-4,-3,,1
1624715060.9720771,-6,-6,10,37,6,5,6,-5,,1
1624715060.975095,-2,-6,-7,-22,-6,1,-1,-2,,2
1624715060.975095,0,-5,-24,-15,-5,-6,-2,0,,2
1624715060.9852512,-1,-6,-6,-3,1,0,-4,0,,3
1624715060.9852512,1,-6,4,-6,-4,2,-1,3,,3
1624715061.0081348,5,0,-39,1,-2,6,-1,2,,0
1624715061.0081348,-54,-51,-9,-2,1,-4,-7,-8,,0
1624715061.009595,-2,-3,-29,-7,0,-7,-21,-8,,1
1624715061.009595,1,8,59,-16,3,9,25,8,,1
1624715061.0126028,6,10,18,49,8,3,-11,3,,2
1624715061.0126028,5,-5,-18,-16,-4,-5,3,-3,,2
1624715061.021865,-4,-3,-27,-4,0,-5,-7,-3,,3
1624715061.021865,1,2,-9,-12,-3,3,10,-1,,3
1624715061.024265,3,-1,-3,-3,-4,1,2,21,,0
1624715061.024265,-7,-3,-25,-4,2,-5,-3,-10,,0
1624715061.0535429,5,3,51,7,5,1,0,2,,1
1624715061.0535429,0,29,-10,-2,-5,1,-1,2,,1
1624715061.059038,3,1,29,4,-4,1,-2,5,,2
1624715061.059038,-2,4,-6,0,1,5,4,-5,,2
1624715061.0606909,0,0,-2,-2,-2,-4,-13,2,,3
1624715061.0606909,0,0,2,2,-5,0,11,0,,3
1624715061.06742,1,3,4,-17,6,4,-19,-4,,0
1624715061.06742,2,3,13,5,-1,-1,5,2,,0
1624715061.088831,0,0,-31,-16,5,-1,0,-4,,1
1624715061.088831,-2,-5,19,0,-8,1,-11,-4,,1
1624715061.10517,-2,-1,-49,-9,-1,3,-1,4,,2
1624715061.10517,1,3,65,7,1,4,19,4,,2
1624715061.106347,-7,-8,-19,-5,0,-4,-4,-4,,3
1624715061.106347,-1,-2,-4,-1,3,-1,-4,2,,3
1624715061.108611,-5,-31,-6,-3,1,3,-3,-2,,0
1624715061.108611,-1,2,-7,-6,-1,-3,-11,0,,0
1624715061.127421,-10,-6,3,10,-2,-5,1,-2,,1
1624715061.127421,1,11,-2,2,0,0,4,2,,1
1624715061.134348,1,0,4,4,-6,3,3,2,,2
1624715061.134348,-4,-118,-26,-1,7,0,-4,-2,,2
1624715061.14957,2,-5,12,-6,1,3,0,-1,,3
1624715061.14957,4,6,-5,8,-5,2,-1,1,,3
1624715061.156459,-1,0,-3,-23,-1,2,2,2,,0
1624715061.156459,-3,0,-8,16,-1,1,-5,-3,,0
1624715061.164068,-6,-6,-39,-25,-7,-8,-10,3,,1
1624715061.164068,13,1,9,28,3,5,4,3,,1
1624715061.165748,-32,-2,-31,-22,-3,3,16,0,,2
1624715061.165748,-11,2,69,4,-2,-3,-7,1,,2
1624715061.19531,8,1,-14,-6,3,-6,-8,-5,,3
1624715061.19531,-2,12,-15,0,0,9,6,2,,3
1624715061.196,0,-9,-27,-4,-1,-2,-6,0,,0
1624715061.196,4,127,-9,1,3,-2,-1,1,,0
1624715061.200653,-10,-6,22,4,1,-4,-5,0,,1
1624715061.200653,-1,7,9,-5,3,3,6,1,,1
1624715061.2017019,2,10,-10,11,-3,2,-14,-1,,2
1624715061.2017019,-1,-5,-3,-3,-6,-7,-5,-3,,2
1624715061.22404,-1,1,-27,-37,1,4,4,1,,3
1624715061.22404,4,23,12,57,4,7,23,5,,3
1624715061.225482,5,-11,-14,-14,-3,-8,-15,3,,0
1624715061.225482,51,8,-9,-2,1,9,21,-11,,0
1624715061.246034,15,119,7,-11,-8,-9,-11,2,,1
1624715061.246034,-25,-5,-15,-8,-5,-4,-13,-7,,1
1624715061.247214,-1,7,14,31,2,9,-5,2,,2
1624715061.247214,1,6,51,-25,1,-9,1,-2,,2
1624715061.269265,2,8,-2,5,4,3,0,0,,3
1624715061.269265,2,2,5,-1,-3,-5,5,2,,3
1624715061.293345,-1,-3,-4,-11,1,4,-9,-2,,0
1624715061.293345,0,-2,-5,-13,-3,-5,4,-1,,0
1624715061.296573,0,1,-25,-28,-7,-3,-5,-1,,1
1624715061.296573,-7,-73,3,47,3,-3,-3,-4,,1
1624715061.2982621,3,8,73,10,-2,3,2,2,,2
1624715061.2982621,-1,-3,-25,-21,-3,-3,-3,-4,,2
1624715061.306049,-1,0,18,32,0,0,7,1,,3
1624715061.306049,3,0,-15,-7,5,4,-5,-4,,3
1624715061.307167,-51,4,0,-8,1,6,5,3,,0
1624715061.307167,-1,-8,-26,-21,-10,-26,-59,-10,,0
1624715061.332156,2,6,40,-9,8,2,35,16,,1
1624715061.332156,4,7,70,59,-2,13,12,-2,,1
1624715061.333698,1,-2,-13,-8,-2,4,8,1,,2
1624715061.333698,-3,-2,-29,-4,-2,-7,-2,-2,,2
1624715061.343842,0,-1,-6,-10,-2,-3,-6,-2,,3
1624715061.343842,-5,-50,-5,-6,-1,-1,-6,0,,3
1624715061.345443,-12,1,6,9,5,3,17,-18,,0
1624715061.345443,5,4,-3,1,10,0,-13,0,,0
1624715061.370074,-5,-10,-19,-14,-5,-6,-2,-7,,1
1624715061.370074,1,3,-22,-3,-2,6,-8,-1,,1
1624715061.3712482,-2,-1,-24,22,-2,-2,-1,-4,,2
1624715061.3712482,0,0,-18,-13,0,-4,4,1,,2
1624715061.3842418,0,1,1,-7,2,4,-1,-3,,3
1624715061.3842418,-8,-7,-12,-4,-3,-5,9,-6,,3
1624715061.385623,31,7,32,-19,-2,14,27,27,,0
1624715061.385623,-24,1,-6,-1,7,-11,11,-10,,0
1624715061.419776,7,1,7,25,1,18,11,20,,1
1624715061.419776,-3,-1,-40,-66,-5,-11,-21,-7,,1
1624715061.421192,2,7,41,-4,7,1,2,1,,2
1624715061.421192,1,4,-26,7,4,2,39,-2,,2
1624715061.426174,0,0,-6,-28,-3,-4,-43,-2,,3
1624715061.426174,-3,-3,23,58,1,-6,63,-9,,3
1624715061.42724,23,6,-2,6,-1,3,-94,12,,0
1624715061.42724,-5,-4,-45,0,4,-8,7,-4,,0
1624715061.465742,1,-2,4,-28,-10,-2,-11,-2,,1
1624715061.465742,5,28,-33,-4,6,-3,10,5,,1
1624715061.467026,7,28,76,23,8,5,9,7,,2
1624715061.467026,-4,-5,-34,-15,-2,-10,-4,-4,,2
1624715061.469429,-30,2,0,1,-2,-3,-28,-8,,3
1624715061.469429,2,-1,-19,-6,5,19,7,2,,3
1624715061.470984,-2,1,-11,-22,-13,-6,13,1,,0
1624715061.470984,-7,-5,-25,-40,-9,-18,-33,-9,,0
1624715061.4862819,6,-3,-18,25,4,16,23,16,,1
1624715061.4862819,0,5,14,14,-1,-11,32,9,,1
1624715061.487158,3,13,-7,6,14,19,-40,-1,,2
1624715061.487158,-8,-6,-25,-16,8,-5,62,3,,2
1624715061.512885,5,-8,-30,-47,-7,-17,-68,-5,,3
1624715061.512885,-10,5,8,11,-15,15,14,2,,3
1624715061.5140119,0,-3,-40,19,-7,0,57,9,,0
1624715061.5140119,17,-1,-35,-44,13,6,-113,-17,,0
1624715061.5246809,15,-3,39,-21,13,5,14,-7,,1
1624715061.5246809,-24,-34,-8,26,1,8,15,29,,1
1624715061.526357,9,12,4,31,13,4,-2,-9,,2
1624715061.526357,5,87,-14,-10,-5,0,-43,-5,,2
1624715061.555017,-21,35,-8,-53,-16,-13,-23,42,,3
1624715061.555017,44,8,-11,21,-3,4,79,-72,,3
1624715061.556276,18,30,-6,27,-1,2,-18,23,,0
1624715061.556276,-13,10,-23,16,-1,-11,52,8,,0
1624715061.5610628,-28,11,59,20,-10,7,17,-25,,1
1624715061.5610628,-9,0,-25,-53,3,-3,-3,-9,,1
1624715061.5621812,13,-5,-16,-27,-11,-2,-10,6,,2
1624715061.5621812,4,-128,-18,5,-1,-16,-15,-52,,2
1624715061.584595,-8,16,-35,10,-1,12,10,79,,3
1624715061.584595,-14,-7,-7,-8,-2,18,58,-20,,3
1624715061.586089,28,2,-45,-1,-1,-5,34,24,,0
1624715061.586089,-15,36,8,-10,3,-8,-90,-32,,0
1624715061.6058722,-49,-2,11,-48,7,14,23,0,,1
1624715061.6058722,36,15,6,65,-2,1,-19,-12,,1
1624715061.6068501,23,7,26,1,1,6,52,53,,2
1624715061.6068501,-8,-128,-43,-56,-7,-14,37,-29,,2
1624715061.620589,-15,-3,13,14,5,-5,-78,-55,,3
1624715061.620589,-4,-12,-13,-30,-8,2,12,7,,3
1624715061.621637,19,127,44,23,1,1,-4,10,,0
1624715061.621637,2,-2,-54,25,11,-2,3,-5,,0
1624715061.643785,1,11,-6,-19,-8,-4,0,-4,,1
1624715061.643785,-10,-14,-29,-36,6,-1,8,-1,,1
1624715061.645195,-5,-14,-12,-13,-17,-11,-22,-13,,2
1624715061.645195,-3,-7,15,24,-1,3,4,-3,,2
1624715061.6672,-1,-2,6,-24,2,2,19,0,,3
1624715061.6672,2,-7,0,-4,-1,-9,-44,-24,,3
1624715061.6687958,-43,81,6,-44,-10,-10,-20,-31,,0
1624715061.6687958,-16,5,-47,29,18,17,82,36,,0
1624715061.689467,6,61,11,-4,3,0,4,4,,1
1624715061.689467,10,-24,-33,-11,-8,7,-2,-8,,1
1624715061.690418,1,30,81,26,20,4,-14,2,,2
1624715061.690418,0,9,1,18,3,-15,2,-16,,2
1624715061.703506,-7,6,-13,-24,-26,-4,-17,17,,3
1624715061.703506,-9,-128,-28,-14,-7,-11,40,-1,,3
1624715061.705038,-15,-14,-24,-9,-15,-4,-54,-4,,0
1624715061.705038,2,12,-39,10,17,13,22,-29,,0
1624715061.727913,-9,72,19,6,11,-17,-128,2,,1
1624715061.727913,-47,-12,-5,21,13,50,57,67,,1
1624715061.729443,44,-23,-112,-15,-10,-10,-3,-27,,2
1624715061.729443,23,9,59,-9,-1,-9,6,-13,,2
1624715061.74114,-16,-30,-10,73,-4,-25,-33,-29,,3
1624715061.74114,-21,18,42,-17,-5,2,-10,12,,3
1624715061.742296,-10,42,-43,-7,-7,9,30,7,,0
1624715061.742296,-6,-14,-42,-17,2,-12,-8,-9,,0
1624715061.7636359,8,127,-9,-21,-4,-1,-10,-1,,1
1624715061.7636359,9,26,127,99,16,3,-9,4,,1
1624715061.764779,-10,-1,-32,-26,-7,-13,-12,-14,,2
1624715061.764779,2,4,-39,-32,2,11,23,5,,2
1624715061.787221,2,-1,-4,1,6,15,17,6,,3
1624715061.787221,1,-5,-10,-47,-6,-8,-9,-1,,3
1624715061.789005,-1,-7,-8,15,-27,-5,-7,0,,0
1624715061.789005,0,2,-15,27,24,-6,1,1,,0
1624715061.801594,2,0,30,28,-1,-6,-1,-2,,1
1624715061.801594,-3,-4,-12,42,-11,9,1,1,,1
1624715061.8033102,2,1,64,-13,2,-1,-2,0,,2
1624715061.8033102,-2,0,-49,14,8,-10,-22,-6,,2
1624715061.832437,-7,-1,0,8,3,2,2,-5,,3
1624715061.832437,7,0,-20,-7,-6,10,12,7,,3
1624715061.8340201,-2,-6,-45,2,-2,-5,-36,-9,,0
1624715061.8340201,2,97,91,-17,27,5,26,0,,0
1624715061.84653,6,-5,18,41,-10,-4,-5,13,,1
1624715061.84653,9,59,15,-37,-13,-8,-9,-1,,1
1624715061.8482502,-2,2,-5,-12,-8,-3,-16,-2,,2
1624715061.8482502,9,20,-21,-8,5,-9,-13,8,,2
1624715061.860924,-13,-4,-7,0,6,9,26,-12,,3
1624715061.860924,9,-4,-21,-22,0,-2,-20,24,,3
1624715061.861948,-10,-7,14,10,-21,-5,-30,-9,,0
1624715061.861948,-1,0,-17,5,-8,-11,12,10,,0
1624715061.883137,-1,-3,22,-10,-2,9,28,24,,1
1624715061.883137,-8,7,28,1,10,1,-74,-26,,1
1624715061.883897,6,127,2,28,9,13,33,3,,2
1624715061.883897,-9,-47,-34,-6,1,-4,16,27,,2
1624715061.9147148,8,4,1,-11,-7,-12,9,-4,,3
1624715061.9147148,-28,1,-3,-21,-4,6,-14,5,,3
1624715061.91605,4,-2,-6,1,2,1,5,5,,0
1624715061.91605,5,6,-40,13,1,-6,0,-6,,0
1624715061.921172,-3,-3,-10,35,7,3,-12,-4,,1
1624715061.921172,7,8,36,9,6,7,11,2,,1
1624715061.928279,6,4,-26,-8,-10,-3,-3,-3,,2
1624715061.928279,-8,-11,-41,-8,3,-7,-6,-5,,2
1624715061.943336,5,70,24,27,-7,3,-3,0,,3
1624715061.943336,0,1,9,-25,4,5,0,3,,3
1624715061.9443169,-6,3,-12,-7,-10,-3,-5,-4,,0
1624715061.9443169,-8,-83,-48,-7,2,-8,11,-3,,0
1624715061.9671512,1,0,2,4,2,6,15,-1,,1
1624715061.9671512,66,19,38,1,6,8,-9,11,,1
1624715061.9681861,-6,-4,-18,-16,2,1,-3,-35,,2
1624715061.9681861,3,4,-24,32,9,-13,-12,-1,,2
1624715061.98161,2,1,-7,-3,-5,1,13,-25,,3
1624715061.98161,-10,-9,-15,-31,-19,-3,-26,-28,,3
1624715061.982986,3,4,15,1,8,5,10,1,,0
1624715061.982986,2,0,-41,-2,3,-11,1,-2,,0
1624715062.0037298,1,-8,22,-6,-3,-4,-2,0,,1
1624715062.0037298,-3,2,-44,2,-2,8,-15,9,,1
1624715062.004858,-1,-1,-14,-7,3,-4,10,-5,,2
1624715062.004858,-6,-5,-17,0,2,-11,-4,-5,,2
1624715062.027255,-4,0,21,-15,-6,3,-9,-2,,3
1624715062.027255,-1,-1,-4,14,2,10,6,4,,3
1624715062.0293021,-5,-3,-21,4,2,0,17,3,,0
1624715062.0293021,5,-4,-30,-8,-3,-8,-50,-18,,0
1624715062.041137,2,2,17,-5,3,1,12,13,,1
1624715062.041137,2,-3,3,-4,2,10,20,0,,1
1624715062.048992,-3,-6,-36,-5,-3,-3,1,-4,,2
1624715062.048992,-4,-3,48,6,5,-19,-11,-7,,2
1624715062.063833,-3,-6,4,-10,-8,0,3,-5,,3
1624715062.063833,-6,-8,3,-11,-14,3,-4,-1,,3
1624715062.0654259,2,-10,-31,-4,5,1,3,1,,0
1624715062.0654259,2,9,9,2,4,-4,-3,-4,,0
1624715062.0874949,4,9,-19,10,14,2,5,0,,1
1624715062.0874949,-1,0,62,-34,-10,7,-5,-8,,1
1624715062.0886452,2,-5,-65,-5,11,-3,0,21,,2
1624715062.0886452,-6,-9,-40,15,1,-9,0,-4,,2
1624715062.10081,4,-3,-8,-22,-1,4,-1,0,,3
1624715062.10081,-1,-15,-12,4,-8,4,-2,3,,3
1624715062.109247,6,24,14,18,13,4,4,4,,0
1624715062.109247,2,5,-26,9,6,-5,0,-6,,0
1624715062.124042,-14,-10,7,-12,-7,-1,3,9,,1
1624715062.124042,21,1,7,-3,-2,7,25,54,,1
1624715062.125643,-3,-1,-12,3,5,-3,1,0,,2
1624715062.125643,0,-5,-16,-6,4,-17,-21,1,,2
1624715062.154679,2,-1,20,-27,-29,4,4,3,,3
1624715062.154679,-12,-21,10,11,9,9,16,-3,,3
1624715062.156631,2,-6,-15,1,1,-13,-9,-5,,0
1624715062.156631,13,37,51,2,6,-7,-10,-4,,0
1624715062.169663,0,-1,6,-16,-10,0,-7,22,,1
1624715062.169663,0,-20,12,-6,3,3,-6,-3,,1
1624715062.170959,-1,0,-4,19,8,3,3,-2,,2
1624715062.170959,2,4,-28,-21,7,-7,1,-1,,2
1624715062.184219,0,1,0,-16,-32,-6,-3,-3,,3
1624715062.184219,-3,4,21,-28,3,13,4,0,,3
1624715062.192159,-2,-9,-9,42,9,-6,1,-2,,0
1624715062.192159,2,0,-12,11,5,-3,-1,-3,,0
1624715062.2144818,-5,-4,4,-1,-7,-1,0,1,,1
1624715062.2144818,6,11,58,13,1,5,-2,8,,1
1624715062.215988,-1,-3,-47,-3,0,-8,-5,-16,,2
1624715062.215988,-6,-3,-16,-3,7,-5,3,-1,,2
1624715062.2288508,0,-1,16,-1,0,-1,-1,-3,,3
1624715062.2288508,0,1,19,1,1,5,0,4,,3
1624715062.2300532,-1,-3,-13,-1,-5,-3,-4,-2,,0
1624715062.2300532,-3,1,-33,-7,3,-6,-1,-5,,0
1624715062.246315,2,-10,-22,-8,-16,0,-7,4,,1
1624715062.246315,-2,3,6,-6,11,6,7,-17,,1
1624715062.258961,-12,-7,11,24,3,-1,-4,-4,,2
1624715062.258961,7,13,-17,-17,-1,-8,-1,-6,,2
1624715062.268248,-3,-6,-16,4,-3,-1,-3,0,,3
1624715062.268248,-8,-16,38,-17,-7,1,-7,-1,,3
1624715062.2693791,0,-7,-61,-3,3,-4,-1,12,,0
1624715062.2693791,3,11,44,4,-2,-1,2,-16,,0
1624715062.289684,13,13,21,-19,7,0,-4,15,,1
1624715062.289684,-44,0,16,-2,-3,4,3,7,,1
1624715062.2911308,-7,-3,-47,-20,-4,-6,0,1,,2
1624715062.2911308,-1,-4,18,75,1,-2,-6,-5,,2
1624715062.305147,8,9,-4,-35,6,5,8,9,,3
1624715062.305147,-4,-6,33,-23,-14,-3,-4,-5,,3
1624715062.3061981,3,-3,-41,-15,-3,-3,-7,7,,0
1624715062.3061981,-13,0,7,5,5,3,9,-34,,0
1624715062.325687,0,-5,-13,23,0,6,0,3,,1
1624715062.325687,4,11,32,-6,0,2,0,3,,1
1624715062.326476,1,-1,-20,19,2,-3,-3,0,,2
1624715062.326476,-6,-10,-21,-5,-3,-7,-2,-5,,2
1624715062.359091,0,4,40,-2,-4,0,-2,0,,3
1624715062.359091,2,11,46,2,8,5,3,2,,3
1624715062.3602118,-3,-1,-39,-5,1,-3,0,-9,,0
1624715062.3602118,-6,-11,-9,-37,-6,-6,-3,-6,,0
1624715062.37199,-4,-6,-9,14,-10,2,1,-3,,1
1624715062.37199,-1,4,14,-5,2,5,0,-1,,1
1624715062.373554,-1,0,-27,12,-5,-8,-4,-3,,2
1624715062.373554,-1,-8,-7,-50,-6,-3,-4,-6,,2
1624715062.3882298,0,-2,22,6,-1,-3,-2,4,,3
1624715062.3882298,3,-2,37,8,0,5,-6,6,,3
1624715062.389754,0,-4,-30,-2,2,-5,4,0,,0
1624715062.389754,-6,0,-3,-19,-5,2,2,-4,,0
1624715062.410094,2,18,7,24,-2,-4,-5,1,,1
1624715062.410094,1,-6,28,4,-11,4,2,1,,1
1624715062.411349,-3,-9,-8,-6,3,-3,-1,-3,,2
1624715062.411349,-3,-2,-15,-10,-4,-3,-3,-3,,2
1624715062.4240692,-1,-1,29,-3,-8,2,-1,0,,3
1624715062.4240692,-2,0,10,-15,5,2,0,6,,3
1624715062.426103,0,-1,-7,35,11,-1,8,2,,0
1624715062.426103,-2,-21,12,-15,-3,-4,1,-6,,0
1624715062.447658,-1,17,9,-1,-1,4,-1,-2,,1
1624715062.447658,11,26,37,31,4,0,13,12,,1
1624715062.449237,1,-14,-23,11,-6,-3,-7,-4,,2
1624715062.449237,-13,-8,-7,-20,-5,-3,-3,-6,,2
1624715062.470651,-5,-11,-2,-31,-6,-3,-4,-4,,3
1624715062.470651,5,-7,9,8,0,4,2,5,,3
1624715062.472178,-6,-11,-69,-3,0,-4,3,-2,,0
1624715062.472178,0,3,12,-4,9,1,3,-1,,0
1624715062.4926279,-2,-7,6,15,3,1,0,0,,1
1624715062.4926279,-4,-8,11,22,-5,4,-1,0,,1
1624715062.494174,2,1,-16,2,-2,0,2,-3,,2
1624715062.494174,-5,-3,4,-11,-3,-6,-3,-6,,2
1624715062.507026,5,2,24,0,12,7,11,30,,3
1624715062.507026,4,0,20,-17,-3,6,-6,2,,3
1624715062.508609,-5,-10,-60,-13,-30,-7,-1,-4,,0
1624715062.508609,1,12,-8,13,-10,-5,2,-3,,0
1624715062.5375428,9,24,38,15,18,11,6,8,,1
1624715062.5375428,2,-5,23,-5,5,0,0,4,,1
1624715062.53909,-5,-13,-83,-14,-16,-10,0,5,,2
1624715062.53909,-7,-6,6,-14,-6,0,-3,-7,,2
1624715062.544343,-1,-9,6,-2,2,1,2,4,,3
1624715062.544343,1,3,9,-37,2,6,0,4,,3
1624715062.545894,-1,0,-8,7,1,-8,-1,-5,,0
1624715062.545894,0,5,95,74,6,-5,-17,5,,0
1624715062.582549,-2,-3,-19,-13,-6,14,22,5,,1
1624715062.582549,9,7,37,15,6,5,10,-2,,1
1624715062.584026,5,3,-50,-18,-2,-3,-22,-29,,2
1624715062.584026,-77,-7,4,9,-7,-14,-5,-11,,2
1624715062.590011,16,5,11,-38,0,-13,-26,-19,,3
1624715062.590011,12,-1,28,-8,-12,20,74,40,,3
1624715062.5914419,9,42,-11,13,23,17,-32,58,,0
1624715062.5914419,-13,-15,-28,-24,-8,-15,-15,-16,,0
1624715062.603699,8,20,61,95,8,6,10,-3,,1
1624715062.603699,3,-4,-3,-14,-14,-1,-5,30,,1
1624715062.605108,-47,-14,-54,-60,-15,-15,-11,-15,,2
1624715062.605108,3,2,51,45,2,-5,-4,-7,,2
1624715062.627805,1,-9,23,-27,-1,5,64,7,,3
1624715062.627805,-12,18,-7,-11,-4,3,-47,-4,,3
1624715062.629236,2,-8,-23,5,-1,-8,-29,-4,,0
1624715062.629236,-41,-1,42,12,2,-3,-8,-10,,0
1624715062.6495109,14,-3,-3,4,-7,4,119,25,,1
1624715062.6495109,11,-3,-18,-25,1,9,-29,-4,,1
1624715062.651079,-51,-4,-31,12,0,-9,-9,-2,,2
1624715062.651079,3,6,49,-10,3,2,28,6,,2
1624715062.673425,-6,-6,-5,-14,-9,-4,-27,-5,,3
1624715062.673425,1,6,21,4,-3,1,4,4,,3
1624715062.674654,-4,-4,-18,2,-4,-4,1,-2,,0
1624715062.674654,17,-22,16,2,1,0,3,4,,0
1624715062.687583,-4,16,-16,0,3,2,-3,-2,,1
1624715062.687583,8,-10,13,5,-17,1,0,-7,,1
1624715062.689493,-24,-2,-18,-4,8,-4,7,2,,2
1624715062.689493,2,-8,3,-10,2,5,-3,-6,,2
1624715062.7098198,1,1,-7,-16,-3,-3,-4,-5,,3
1624715062.7098198,1,-20,-25,-20,-10,-1,-4,1,,3
1624715062.711196,0,15,8,23,10,-1,13,6,,0
1624715062.711196,-1,-8,8,-8,2,1,-7,2,,0
1624715062.724836,-13,-29,-10,-16,-9,1,-16,-26,,1
1624715062.724836,8,10,2,-22,-7,4,2,62,,1
1624715062.7312279,7,16,19,27,5,1,6,-4,,2
1624715062.7312279,-5,-3,-15,-17,-3,-3,-4,-3,,2
1624715062.747937,4,3,10,13,4,8,2,-1,,3
1624715062.747937,6,7,-23,21,7,9,9,5,,3
1624715062.7493582,-52,-16,20,5,-6,-8,-8,-8,,0
1624715062.7493582,4,-2,-44,-34,4,-1,-2,0,,0
1624715062.772537,2,5,31,4,1,2,-4,-12,,1
1624715062.772537,11,-6,-29,9,3,0,-5,-8,,1
1624715062.773955,-33,-22,-36,-27,-10,-2,5,-2,,2
1624715062.773955,12,19,4,23,1,-2,-2,-16,,2
1624715062.800066,0,-1,4,2,5,-3,-19,-5,,3
1624715062.800066,4,2,6,-9,-2,5,21,18,,3
1624715062.808191,-4,-8,-19,-9,-7,-8,-4,-7,,0
1624715062.808191,2,7,11,6,7,6,4,2,,0
1624715062.810946,-2,-16,2,-6,2,2,-7,5,,1
1624715062.810946,-5,10,0,-3,-7,-5,1,-15,,1
1624715062.813445,-1,-5,-30,0,-7,-8,-8,-6,,2
1624715062.813445,0,-3,-3,-21,0,1,4,1,,2
1624715062.829855,-2,-10,6,-2,1,0,-5,-4,,3
1624715062.829855,-4,12,-37,-3,-1,0,-3,-12,,3
1624715062.831296,5,6,29,1,2,2,4,-2,,0
1624715062.831296,1,-4,3,0,-4,-4,-6,-3,,0
1624715062.845484,1,-14,11,-4,-6,2,-11,-11,,1
1624715062.845484,55,22,-54,-3,2,-1,-14,-3,,1
1624715062.8469918,8,4,-19,9,7,0,26,31,,2
1624715062.8469918,0,-6,9,4,2,0,-9,-4,,2
1624715062.867137,-2,-6,-23,-28,-2,0,-6,-13,,3
1624715062.867137,-1,-4,25,3,-10,1,-6,3,,3
1624715062.86863,-6,0,-23,-1,-8,-8,-5,-7,,0
1624715062.86863,0,1,23,31,10,6,-7,-6,,0
1624715062.889726,-3,-4,-49,-8,-6,-4,-2,0,,1
1624715062.889726,-1,1,49,-10,-4,9,2,-3,,1
1624715062.8967319,-14,-1,20,-7,-6,-4,-8,-31,,2
1624715062.8967319,15,17,7,8,6,4,3,-5,,2
1624715062.906695,4,4,-22,2,9,3,5,13,,3
1624715062.906695,-5,-8,16,2,2,-1,-3,1,,3
1624715062.908077,-8,-13,-45,-1,3,0,-5,9,,0
1624715062.908077,1,7,82,-2,-8,-7,0,-41,,0
1624715062.927862,8,23,41,13,-5,5,-13,9,,1
1624715062.927862,9,12,56,0,0,3,13,37,,1
1624715062.929288,1,34,-67,3,8,-1,13,-4,,2
1624715062.929288,7,-1,36,4,9,3,-11,3,,2
1624715062.95038,-2,-3,2,13,2,-5,-7,3,,3
1624715062.95038,-6,-3,11,-13,-10,0,-7,-10,,3
1624715062.951832,6,-13,-46,1,4,-3,-3,-8,,0
1624715062.951832,14,13,25,3,-3,0,-8,-5,,0
1624715062.964658,0,0,12,-16,-11,0,32,38,,1
1624715062.964658,-1,-12,-36,-12,-2,1,1,-5,,1
1624715062.9887302,10,19,41,42,18,3,4,6,,2
1624715062.9887302,2,6,41,8,12,7,14,-1,,2
1624715062.9917781,10,-26,7,-10,6,2,-1,54,,3
1624715062.9917781,-9,-12,-24,-33,-15,-3,5,-7,,3
1624715062.992974,-1,7,-50,4,-8,-5,-9,-3,,0
1624715062.992974,4,5,-20,-2,4,8,18,-10,,0
1624715063.025058,-6,6,42,43,14,5,-44,-80,,1
1624715063.025058,4,-4,-8,-1,10,5,12,-4,,1
1624715063.0262022,-7,-7,-30,-21,-16,-9,-2,-4,,2
1624715063.0262022,-14,-78,-54,11,-8,4,-6,-7,,2
1624715063.033387,13,32,127,12,3,3,-1,1,,3
1624715063.033387,2,-1,-36,1,5,3,-2,2,,3
1624715063.034289,3,-7,-79,-5,9,-2,0,-2,,0
1624715063.034289,-3,-2,89,57,17,1,-5,-3,,0
1624715063.046994,-3,-5,-41,-27,1,0,3,-1,,1
1624715063.046994,-6,-8,5,-24,-7,-2,-8,-2,,1
1624715063.048436,-1,-2,-19,4,5,1,0,0,,2
1624715063.048436,-3,-11,-41,0,-17,0,1,-1,,2
1624715063.070103,0,3,10,14,0,5,0,3,,3
1624715063.070103,3,7,-18,-20,-2,-3,5,1,,3
1624715063.07158,7,-3,9,-4,4,-1,-8,-4,,0
1624715063.07158,1,-8,-13,4,-1,4,11,6,,0
1624715063.092542,-7,-27,24,-21,-8,-4,-17,-7,,1
1624715063.092542,-4,24,-65,-23,-5,0,-9,-1,,1
1624715063.093965,-1,4,25,35,7,-6,-4,-8,,2
1624715063.093965,2,-7,-66,-4,-5,-2,-4,5,,2
1624715063.1220102,11,29,77,-3,15,12,31,24,,3
1624715063.1220102,-3,-16,-16,-9,-2,-4,-3,-12,,3
1624715063.12353,-5,1,6,14,0,0,-1,-5,,0
1624715063.12353,-7,-16,-28,-40,-10,-3,-5,-6,,0
1624715063.129824,2,15,-13,29,-4,-1,-1,-1,,1
1624715063.129824,5,8,37,1,2,4,3,3,,1
1624715063.1314108,-2,-13,-45,-25,1,-3,-2,-14,,2
1624715063.1314108,3,11,12,65,18,1,0,53,,2
1624715063.151646,-7,-7,-27,-21,-4,0,-1,-1,,3
1624715063.151646,10,46,13,-1,2,3,2,5,,3
1624715063.1528032,2,11,13,38,10,6,9,1,,0
1624715063.1528032,-6,-21,-22,-15,-19,-2,-14,-8,,0
1624715063.1676779,2,3,7,-33,13,8,1,5,,1
1624715063.1676779,-2,-14,-23,21,-18,-4,1,2,,1
1624715063.168997,0,0,-17,-13,7,1,6,-2,,2
1624715063.168997,-1,-1,8,-5,2,1,-2,-4,,2
1624715063.18987,-3,-3,-12,-13,-2,-1,-18,-11,,3
1624715063.18987,8,-5,-2,-7,-5,6,50,62,,3
1624715063.191465,2,3,7,7,4,-1,0,-6,,0
1624715063.191465,-2,-5,-29,-27,1,-5,-1,-5,,0
1624715063.211811,-1,-6,122,13,-4,0,-4,0,,1
1624715063.211811,-6,-31,-54,-1,-8,-3,-6,-5,,1
1624715063.213535,12,70,75,11,7,-1,4,9,,2
1624715063.213535,-2,-11,-11,-12,-1,-3,-8,-62,,2
1624715063.226685,6,5,-16,0,9,2,0,29,,3
1624715063.226685,-3,-3,2,-2,-4,0,-8,-1,,3
1624715063.22787,-7,-7,-59,-4,-6,-3,0,-3,,0
1624715063.22787,1,5,23,-58,10,6,6,2,,0
1624715063.248537,4,-1,-28,1,3,6,-7,-3,,1
1624715063.248537,2,0,29,20,2,-3,1,49,,1
1624715063.257243,-6,-21,-62,-20,-2,-8,2,-6,,2
1624715063.257243,0,13,-23,4,-10,1,-2,-4,,2
1624715063.271314,8,12,95,28,9,6,8,23,,3
1624715063.271314,-5,-12,-36,34,2,-8,-3,-1,,3
1624715063.272893,-1,-19,-31,-12,-5,0,4,-9,,0
1624715063.272893,4,11,2,-11,7,3,-1,-1,,0
1624715063.302515,0,-4,9,7,-14,-1,-3,-2,,1
1624715063.302515,2,-4,34,-10,-11,-6,-15,-4,,1
1624715063.305334,-4,-9,-32,14,-8,-10,-8,-8,,2
1624715063.305334,-3,-4,1,-36,1,2,1,-28,,2
1624715063.309321,1,-3,3,37,-15,-5,0,-1,,3
1624715063.309321,-3,-9,-21,-24,2,-5,-2,7,,3
1624715063.311736,6,18,2,23,2,-4,-8,21,,0
1624715063.311736,-5,-7,-15,-14,-4,-4,2,-2,,0
1624715063.3320582,2,12,-18,3,-3,1,-3,-3,,1
1624715063.3320582,-3,-7,13,10,1,0,-6,-4,,1
1624715063.3477492,-11,-91,-52,-12,0,-10,-8,-9,,2
1624715063.3477492,-10,14,-31,-9,-2,-5,-9,5,,2
1624715063.348924,12,14,24,-3,1,4,4,-26,,3
1624715063.348924,5,4,-41,5,-1,1,0,-1,,3
1624715063.351027,-7,-5,-24,-11,-1,-9,0,-1,,0
1624715063.351027,-3,-2,-50,6,3,1,-6,-1,,0
1624715063.369756,0,6,4,-10,-5,1,3,3,,1
1624715063.369756,-3,-2,4,1,8,2,0,2,,1
1624715063.3718882,-3,-3,-20,-6,-1,-9,-4,-3,,2
1624715063.3718882,0,-4,-11,1,-9,-6,-3,0,,2
1624715063.399858,-4,-28,-35,5,-4,-2,-3,-2,,3
1624715063.399858,6,15,9,-17,6,9,9,6,,3
1624715063.402356,-3,-14,-77,18,1,-11,-12,-6,,0
1624715063.402356,-3,-6,18,-25,-5,2,2,23,,0
1624715063.4066932,5,-9,-24,25,8,2,0,-20,,1
1624715063.4066932,3,12,13,46,9,6,4,6,,1
1624715063.4084322,-8,-11,-13,-11,-3,-6,-6,-3,,2
1624715063.4084322,1,-5,-16,-2,-8,-3,-6,-3,,2
1624715063.42968,0,17,18,-14,8,10,0,4,,3
1624715063.42968,2,-2,13,61,17,1,4,-8,,3
1624715063.4332411,0,6,-18,-2,8,-6,-1,-1,,0
1624715063.4332411,-3,-5,4,-12,0,-3,2,-4,,0
1624715063.452076,-1,-15,2,-7,0,4,6,-1,,1
1624715063.452076,4,4,-50,-2,-2,-4,-7,1,,1
1624715063.454941,-7,-9,-16,-8,3,-10,-1,-19,,2
1624715063.454941,1,2,85,1,-8,-2,-5,-10,,2
1624715063.467239,0,30,-1,-3,0,4,2,23,,3
1624715063.467239,-3,-5,-25,-4,0,-1,-9,-6,,3
1624715063.470478,2,5,-21,2,3,-3,10,0,,0
1624715063.470478,1,5,-33,5,0,2,-1,-3,,0
1624715063.49011,-3,-9,24,-27,-3,-3,-13,-12,,1
1624715063.49011,0,14,-16,8,-5,-3,6,3,,1
1624715063.493442,-4,-53,-28,6,8,-5,-3,-4,,2
1624715063.493442,2,-3,11,-10,0,3,2,-4,,2
1624715063.512291,-2,-2,49,-5,-6,-1,-4,-11,,3
1624715063.512291,-4,-7,-26,-3,1,-3,0,44,,3
1624715063.515575,-3,-16,-55,-3,-8,-13,7,-17,,0
1624715063.515575,1,15,61,13,1,4,5,19,,0
1624715063.526946,0,0,-2,-13,2,2,-4,-3,,1
1624715063.526946,1,-9,-32,-16,-2,-3,0,2,,1
1624715063.533661,2,2,-15,41,11,-3,-1,0,,2
1624715063.533661,4,5,75,-6,1,4,1,1,,2
1624715063.54969,-1,-4,-26,-1,4,6,8,3,,3
1624715063.54969,11,18,30,-6,0,3,13,62,,3
1624715063.55293,1,-1,-40,-4,-1,-8,-3,-4,,0
1624715063.55293,2,-3,0,5,1,4,-6,-5,,0
1624715063.579963,-4,-10,-8,-34,-14,0,0,8,,1
1624715063.579963,0,2,7,31,6,-4,-1,-15,,1
1624715063.5829608,-9,-10,-39,-21,0,-10,-3,-9,,2
1624715063.5829608,6,3,127,54,2,1,-3,4,,2
1624715063.585479,1,10,-1,9,2,3,8,-11,,3
1624715063.585479,3,22,-56,-8,-5,-4,5,14,,3
1624715063.595554,1,-6,-4,-18,-1,-10,2,-4,,0
1624715063.595554,-3,-7,-7,33,5,1,-4,3,,0
1624715063.6103082,2,-2,6,-14,-9,0,3,13,,1
1624715063.6103082,-3,-5,-26,-14,2,-3,-2,-2,,1
1624715063.6135292,-1,-4,-12,0,1,-5,-1,-6,,2
1624715063.6135292,-4,-4,-9,-10,1,1,-7,-6,,2
1624715063.6327,-3,-3,-5,17,-3,0,5,6,,3
1624715063.6327,-1,-1,9,-2,0,-4,1,1,,3
1624715063.6360111,-4,-4,-61,-14,-2,-8,-15,-25,,0
1624715063.6360111,-1,2,-38,8,1,4,19,3,,0
1624715063.645879,9,3,37,-11,-3,4,8,94,,1
1624715063.645879,-5,-13,-2,9,-4,-4,-2,5,,1
1624715063.6560051,-1,2,-17,9,6,-7,-2,-20,,2
1624715063.6560051,-4,-10,-23,13,-1,1,-2,-2,,2
1624715063.669612,1,5,85,-1,-3,3,-2,3,,3
1624715063.669612,1,-1,-50,6,3,1,1,1,,3
1624715063.672819,-6,-10,-72,-14,2,-8,-3,-10,,0
1624715063.672819,7,3,33,23,3,3,0,-36,,0
1624715063.692844,-6,8,-17,-12,-4,-6,3,-17,,1
1624715063.692844,-10,-9,15,-5,-1,-8,-13,-20,,1
1624715063.695756,-4,-19,-3,4,-6,-9,-10,-3,,2
1624715063.695756,4,17,-16,1,-1,9,6,7,,2
1624715063.7048268,-1,-1,0,-9,-5,0,-3,9,,3
1624715063.7048268,1,-4,-29,-5,4,-1,-3,40,,3
1624715063.7150981,0,5,54,17,0,-6,11,-7,,0
1624715063.7150981,-3,-6,-1,-11,0,1,0,5,,0
1624715063.729555,6,-3,-33,-9,-7,1,6,5,,1
1624715063.729555,-1,10,15,14,-1,-2,-7,-11,,1
1624715063.732626,-3,0,-21,1,9,-1,-5,-15,,2
1624715063.732626,-5,-23,-102,1,-9,-11,-8,1,,2
1624715063.752131,15,53,-21,6,6,16,2,6,,3
1624715063.752131,2,-11,28,-3,-3,1,4,10,,3
1624715063.755048,5,-5,0,-7,4,-7,-1,-1,,0
1624715063.755048,-3,3,13,1,1,5,5,-9,,0
1624715063.7662,-3,-3,18,3,3,1,-6,-3,,1
1624715063.7662,-3,-6,-13,-5,-6,-1,3,5,,1
1624715063.775841,-4,-3,-20,-5,-2,-7,-2,-10,,2
1624715063.775841,7,7,90,20,13,5,-27,-34,,2
1624715063.7900958,-3,2,0,-30,-22,-1,9,-1,,3
1624715063.7900958,-7,-7,-43,-11,7,-11,-9,0,,3
1624715063.793383,-1,7,32,22,-1,-3,2,-8,,0
1624715063.793383,4,1,4,25,10,4,1,-8,,0
1624715063.812005,6,15,-17,-12,-6,5,0,-8,,1
1624715063.812005,0,10,2,33,3,-2,-5,4,,1
1624715063.817503,-2,-1,1,-27,7,0,-9,-3,,2
1624715063.817503,7,4,6,-5,7,-1,2,6,,2
1624715063.825536,-8,17,17,4,-5,0,-9,-6,,3
1624715063.825536,-9,-17,-87,-30,-9,-3,5,-2,,3
1624715063.835485,3,12,127,57,9,2,-1,-2,,0
1624715063.835485,2,-9,-49,-20,-3,0,-1,0,,0
1624715063.8493261,-1,-21,-12,-5,-8,1,-12,-15,,1
1624715063.8493261,-8,24,32,-11,-1,3,15,8,,1
1624715063.856193,3,-4,-13,10,8,-4,5,-17,,2
1624715063.856193,3,1,57,11,3,1,-2,-4,,2
1624715063.872631,-3,-8,8,-14,-9,2,2,54,,3
1624715063.872631,-5,0,36,13,2,-4,-13,-11,,3
1624715063.8754728,1,-12,29,5,-2,-2,50,15,,0
1624715063.8754728,12,11,127,8,1,6,11,38,,0
1624715063.8858318,64,-3,-34,12,6,5,-8,8,,1
1624715063.8858318,-11,-22,-15,-14,-5,-10,-7,-5,,1
1624715063.901616,-2,6,67,11,-2,-8,-1,-3,,2
1624715063.901616,-7,-9,-6,6,-10,-2,-6,-10,,2
1624715063.909816,-2,-5,2,-16,-11,1,-20,35,,3
1624715063.909816,15,-10,-10,12,4,0,27,-25,,3
1624715063.913014,-39,-17,-35,-13,-1,-4,4,-6,,0
1624715063.913014,6,-12,11,-1,2,1,-21,-16,,0
1624715063.9323,-17,-42,20,-14,-3,1,28,-15,,1
1624715063.9323,88,18,9,22,5,4,0,-18,,1
1624715063.935515,0,-3,38,-5,-5,-5,-8,-6,,2
1624715063.935515,-2,1,72,16,3,1,-6,-14,,2
1624715063.945899,-12,-3,52,1,-3,1,-24,-20,,3
1624715063.945899,-2,-1,-4,13,0,0,33,9,,3
1624715063.955578,-6,-9,1,-1,2,-3,-1,-12,,0
1624715063.955578,-5,-4,-8,-6,-6,4,-5,-9,,0
1624715063.9696052,-3,-5,11,-4,-6,-5,-8,-13,,1
1624715063.9696052,11,1,-7,1,-2,-5,-22,-36,,1
1624715063.972606,13,-5,-14,-9,5,-2,47,31,,2
1624715063.972606,-58,5,2,-2,-4,-5,-25,-22,,2
1624715063.992337,16,-7,76,41,6,10,15,-17,,3
1624715063.992337,-7,-5,32,-6,1,-2,7,-37,,3
1624715063.9953039,22,11,26,-7,7,1,10,83,,0
1624715063.9953039,-16,-9,-31,-20,-7,-1,-10,-1,,0
1624715064.0056121,3,23,-20,0,1,7,-32,1,,1
1624715064.0056121,0,2,-5,3,2,1,0,-17,,1
1624715064.015647,-5,-13,-14,-6,-1,-7,-17,3,,2
1624715064.015647,-6,8,18,0,-3,3,47,24,,2
1624715064.029737,66,-74,1,-3,0,4,-16,-20,,3
1624715064.029737,4,-8,10,-5,0,-4,-6,0,,3
1624715064.032984,4,9,-14,-6,-1,1,-38,15,,0
1624715064.032984,-69,-24,-29,8,-1,-3,26,21,,0
1624715064.052227,-9,6,26,-6,1,2,7,0,,1
1624715064.052227,-3,-12,-13,10,-3,-7,-8,-13,,1
1624715064.055765,-10,-10,22,-7,0,-4,-9,-9,,2
1624715064.055765,-4,-7,-13,-9,-3,0,-14,-43,,2
1624715064.065557,-8,-16,-42,7,-3,3,-4,-1,,3
1624715064.065557,11,-16,-60,-25,0,-5,-69,-88,,3
1624715064.07568,-19,-2,-33,-1,-3,-3,23,25,,0
1624715064.07568,-88,-13,-93,-37,-7,-5,-5,-13,,0
1624715064.090147,21,-9,127,69,1,2,0,-27,,1
1624715064.090147,38,-23,-117,-13,-3,-5,-10,-9,,1
1624715064.093188,22,21,-21,-16,-6,-3,2,39,,2
1624715064.093188,24,-15,19,15,3,1,-1,-14,,2
1624715064.111986,0,-7,1,-4,0,4,1,15,,3
1624715064.111986,-15,-12,-14,-18,-6,1,23,3,,3
1624715064.114968,-29,-15,-65,-9,-1,-7,-10,-21,,0
1624715064.114968,81,29,24,1,5,6,-10,-12,,0
1624715064.1263921,59,30,127,29,4,11,21,43,,1
1624715064.1263921,-4,26,-31,-15,1,1,-2,6,,1
1624715064.135721,-9,-27,-10,3,-3,-9,-7,-17,,2
1624715064.135721,-14,34,-21,-26,-5,2,9,47,,2
1624715064.149416,0,37,-5,4,-1,4,-25,-74,,3
1624715064.149416,16,39,50,65,12,5,14,-28,,3
1624715064.152236,-16,29,-20,-39,-15,-11,-2,-23,,0
1624715064.152236,2,-38,77,47,20,8,-9,-3,,0
1624715064.1733062,12,-96,48,-41,-14,-5,-13,-9,,1
1624715064.1733062,-11,16,-58,-21,-5,-2,-70,32,,1
1624715064.175903,18,-24,-82,9,-4,-18,15,56,,2
1624715064.175903,12,19,22,4,11,19,95,56,,2
1624715064.195859,45,-13,31,-5,-1,6,0,-50,,3
1624715064.195859,-16,-128,-8,-11,-6,-13,-14,19,,3
1624715064.1989539,8,-18,-53,-9,-9,4,12,-74,,0
1624715064.1989539,-2,3,-37,7,-7,5,-4,7,,0
